Indice,Anular,Anular filtered
-46112,3.376664876,1.410916098
-46108,7.393761252,4.349140711
-46104,11.41110036,7.310067442
-46104,11.42868311,10.28775827
-46103,12.44651039,13.27625264
-46092,23.4645831,16.26959617
-46091,24.48290214,19.26186879
-46090,25.5014684,22.24721247
-46089,26.52028276,25.2198581
-46086,29.53934613,28.17415142
-46079,36.55865938,31.10457789
-46075,40.5782234,34.00578633
-46080,35.59803906,36.87261115
-46069,46.61810724,39.70009305
-46073,42.63842882,42.48349819
-46069,46.65900466,45.2183356
-46064,51.67983562,47.90037276
-46065,50.70092256,50.52564942
-46056,59.72226633,53.09048948
-46057,58.74386778,55.59151088
-46055,60.76572776,58.02563364
-46058,57.7878471,60.39008587
-46054,61.81022662,62.68240785
-46051,64.83286716,64.9004542
-46053,62.85576954,67.04239417
-46047,68.87893456,69.10671008
-46043,72.90236303,71.09219404
-46044,71.92605575,72.9979429
-46041,74.95001351,74.82335166
-46039,76.9742371,76.56810535
-46043,72.99872729,78.23216949
-46041,75.02348486,79.8157792
-46036,80.04851057,81.31942724
-46033,83.07380517,82.74385082
-46032,84.0993694,84.09001763
-46030,86.12520402,85.35911087
-46033,83.15130975,86.5525138
-46024,92.17768731,87.67179348
-46028,88.20433742,88.71868431
-46026,90.23126078,89.69507108
-46027,89.25845809,90.60297193
-46029,87.28593004,91.44452125
-46026,90.3136773,92.22195258
-46032,84.34170056,92.93758169
-46022,94.37000046,93.59379002
-46023,93.39857766,94.1930084
-46023,93.42743281,94.73770128
-46025,91.45656654,95.23035153
-46019,97.48597948,95.67344593
-46015,101.5156722,96.06946127
-46015,101.5456454,96.42085138
-46026,90.57589966,96.73003485
-46024,92.6064355,96.99938381
-46021,95.63725353,97.2312135
-46020,96.66835433,97.4277729
-46015,101.6997384,97.59123631
-46017,99.73140644,97.72369596
-46017,99.76335884,97.82715563
-46018,98.7955962,97.90352527
-46022,94.82811901,97.95461668
-46021,95.86092781,97.9821401
-46019,97.89402308,97.98770188
-46022,94.92740533,97.97280297
-46018,98.96107502,97.93883845
-46024,92.99503265,97.88709782
-46020,97.02927867,97.81876618
-46019,98.06381353,97.73492613
-46020,97.09863769,97.63656047
-46021,96.13375157,97.52455546
-46019,98.16915561,97.39970474
-46019,98.20485022,97.26271377
-46018,99.2408358,97.11420478
-46019,98.27711276,96.95472202
-46018,99.31368147,96.78473749
-46016,101.3505423,96.60465681
-46020,97.38769569,96.41482539
-46019,98.42514192,96.21553467
-46024,93.46288137,96.00702851
-46021,96.50091436,95.78950955
-46018,99.53924124,95.56314549
-46020,97.57786233,95.32807541
-46025,92.61677792,95.08441577
-46019,98.65598834,94.83226637
-46022,95.69549385,94.57171595
-46023,94.73529476,94.30284758
-46020,97.77539133,94.02574373
-46027,90.81578383,93.74049096
-46030,87.8564725,93.44718429
-46028,89.8974576,93.14593109
-46026,91.93873936,92.83685467
-46020,97.98031801,92.52009735
-46025,93.02219377,92.19582313
-46029,89.06436684,91.86421995
-46023,95.10683743,91.52550144
-46027,91.14960572,91.1799083
-46027,91.1926719,90.82770918
-46031,87.23603615,90.46920125
-46025,93.27969861,90.10471022
-46027,91.32365946,89.73459009
-46026,92.36791883,89.35922245
-46029,89.41247687,88.97901548
-46029,89.45733369,88.59440261
-46029,89.50248943,88.20584085
-46035,83.54794419,87.81380892
-46031,87.59369807,87.41880506
-46035,83.63975116,87.02134464
-46033,85.68610356,86.62195765
-46038,80.73275533,86.22118596
-46037,81.77970655,85.8195805
-46030,88.82695727,85.4176983
-46038,80.87450755,85.01609954
-46036,82.92235744,84.61534448
-46036,82.97050696,84.21599047
-46036,83.01895614,83.81858885
-46032,87.067705,83.42368204
-46034,85.11675356,83.03180062
-46034,85.16610182,82.64346044
-46036,83.21574977,82.25915997
-46032,87.26569739,81.87937768
-46040,79.31594467,81.50456958
-46041,78.36649157,81.13516696
-46038,81.41733805,80.77157423
-46040,79.46848407,80.41416704
-46038,81.51992958,80.06329048
-46038,81.57167451,79.71925761
-46042,77.62371878,79.38234808
-46042,77.67606233,79.05280705
-46038,81.72870507,78.73084425
-46046,73.78164689,78.41663336
-46039,80.83488771,78.1103115
-46045,74.88842741,77.811979
-46042,77.94226588,77.52169935
-46046,73.99640298,77.23949936
-46044,76.0508386,76.96536954
-46040,80.10557258,76.69926462
-46044,76.16060479,76.44110433
-46045,75.21593506,76.19077423
-46045,75.27156325,75.94812681
-46044,76.32748916,75.71298266
-46045,75.38371264,75.48513182
-46044,76.4402335,75.26433521
-46045,75.49705153,75.05032617
-46048,72.55416655,74.84281207
-46047,73.61157835,74.64147607
-46045,75.66928672,74.44597881
-46043,77.72729142,74.25596025
-46048,72.78559224,74.07104147
-46045,75.84418894,73.89082656
-46051,69.90308127,73.71490438
-46044,76.96226898,73.54285045
-46047,74.02175183,73.37422876
-46044,77.08152953,73.20859348
-46054,67.14160182,73.04549072
-46048,73.20196841,72.88446021
-46047,74.26262903,72.72503689
-46048,73.32358337,72.56675245
-46049,72.38483114,72.4091368
-46048,73.44637203,72.25171946
-46049,72.50820572,72.09403087
-46048,73.57033189,71.93560362
-46049,72.6327502,71.77597357
-46053,68.69546033,71.61468095
-46046,75.75846192,71.45127133
-46050,71.82175463,71.28529651
-46054,67.8853381,71.11631534
-46055,66.94921196,70.94389451
-46048,74.01337583,70.76760923
-46051,71.07782935,70.58704385
-46050,72.14257212,70.40179243
-46051,71.20760375,70.21145931
-46056,66.27292385,70.01565952
-46052,70.33853199,69.81401929
-46054,68.40442778,69.60617645
-46056,66.47061078,69.39178078
-46053,69.53708057,69.17049444
-46054,68.60383672,68.94199228
-46054,68.67087878,68.70596221
-46054,68.73820632,68.46210552
-46053,69.80581886,68.21013726
-46055,67.87371596,67.94978653
-46053,69.94189714,67.68079689
-46059,64.01036194,67.40292665
-46057,66.07910985,67.11594927
-46059,64.14814041,66.81965373
-46058,65.21745312,66.51384487
-46056,67.28704747,66.19834384
-46057,66.35692295,65.87298841
-46057,66.42707906,65.53763343
-46055,68.49751527,65.19215119
-46063,60.56823106,64.83643182
-46063,60.63922588,64.47038367
-46055,68.71049922,64.09393371
-46063,60.7820505,63.70702786
-46059,64.85387919,63.30963134
-46059,64.92598473,62.90172904
-46060,63.99836655,62.48332577
-46058,66.07102408,62.05444652
-46063,61.14395674,61.61513676
-46060,64.21716395,61.16546258
-46061,63.29064511,60.70551085
-46065,59.36439964,60.23538937
-46067,57.43842693,59.7552269
-46068,56.51272637,59.26517318
-46068,56.58729734,58.76539889
-46067,57.66213924,58.25609558
-46064,60.73725142,57.73747549
-46067,57.81263326,57.20977136
-46068,56.88828413,56.67323614
-46068,56.96420338,56.1281427
-46071,54.04039036,55.57478342
-46075,50.11684442,55.0134697
-46068,57.1935649,54.44453153
-46072,53.27055113,53.86831682
-46075,50.34780245,53.28519081
-46072,53.42531818,52.69553535
-46077,48.50309764,52.09974815
-46077,48.58114014,51.49824189
-46074,51.659445,50.8914434
-46071,54.73801151,50.27979263
-46080,45.81683899,49.66374169
-46072,53.89592672,49.04375374
-46074,51.97527399,48.42030187
-46077,49.0548801,47.7938679
-46082,44.13474431,47.16494117
-46078,48.2148659,46.53401725
-46078,48.29524414,45.90159656
-46081,45.3758783,45.26818311
-46082,44.45676765,44.63428299
-46086,40.53791142,44.00040303
-46081,45.61930889,43.36704933
-46080,46.70095928,42.73472581
-46089,37.78286186,42.10393272
-46083,43.86501585,41.47516526
-46087,39.9474205,40.84891204
-46087,40.03007502,40.22565374
-46086,41.11297866,39.60586167
-46089,38.19613062,38.98999642
-46094,33.27953014,38.37850659
-46089,38.36317642,37.77182746
-46091,36.44706868,37.17037987
-46090,37.53120612,36.57456908
-46089,38.61558795,35.98478372
-46097,30.70021336,35.40139489
-46085,42.78508156,34.82475525
-46092,35.87019174,34.2551983
-46096,31.95554309,33.69303776
-46100,28.04113478,33.13856702
-46092,36.12696601,32.59205872
-46100,28.21303596,32.05376449
-46095,33.2993438,31.52391478
-46099,29.3858887,31.00271878
-46094,34.47266983,30.49036459
-46100,28.55968636,29.98701936
-46101,27.64693746,29.49282963
-46101,27.73442228,29.00792185
-46099,29.82213998,28.53240287
-46101,27.91008972,28.06636071
-46103,25.99827064,27.60986527
-46104,25.08668191,27.1629693
-46106,23.17532266,26.72570933
-46108,21.26419204,26.29810679
-46099,30.35328919,25.88016908
-46103,26.44261326,25.47189085
-46104,25.53216336,25.07325521
-46098,31.62193866,24.68423506
-46106,23.71193826,24.30479439
-46109,20.8021613,23.93488964
-46105,24.89260691,23.57447106
-46103,26.98327421,23.22348403
-46106,24.07416232,22.88187042
-46107,23.16527037,22.54956984
-46109,21.25659746,22.22652097
-46112,18.34814271,21.91266266
-46112,18.43990523,21.60793517
-46112,18.53188413,21.31228118
-46108,22.62407853,21.0256468
-46107,23.71648752,20.74798247
-46110,20.80911021,20.47924376
-46114,16.9019457,20.21939209
-46111,19.99499309,19.96839532
-46109,22.08825148,19.72622823
-46109,22.18171997,19.49287291
-46110,21.27539764,19.26831902
-46115,16.36928359,19.05256395
-46114,17.46337691,18.84561282
-46111,20.55767668,18.64747843
-46111,20.65218199,18.45818107
-46111,20.74689192,18.27774823
-46112,19.84180556,18.10621418
-46108,23.93692198,17.94361953
-46116,16.03224027,17.79001065
-46113,19.12775949,17.64543899
-46114,18.22347872,17.5099604
-46117,15.31939702,17.38363434
-46122,10.41551348,17.26652306
-46118,14.51182716,17.15869071
-46114,18.60833713,17.06020248
-46120,12.70504244,16.97112365
-46121,11.80194216,16.89151865
-46115,17.89903537,16.82145014
-46116,16.9963211,16.7609781
-46114,19.09379844,16.71015886
-46119,14.19146642,16.66904424
-46117,16.28932412,16.63768067
-46112,21.38737057,16.61610834
-46114,19.48560484,16.60436043
-46117,16.58402598,16.60246231
-46121,12.68263302,16.61043087
-46116,17.78142503,16.62827383
-46116,17.88040104,16.65598913
-46114,19.97956009,16.69356441
-46122,12.07890124,16.74097642
-46122,12.17842351,16.79819068
-46113,21.27812595,16.865161
-46116,18.37800759,16.94182915
-46119,15.47806747,17.02812461
-46119,15.57830463,17.12396429
-46119,15.67871808,17.22925235
-46122,12.77930687,17.34388003
-46120,14.88007002,17.46772559
-46115,19.98100655,17.60065422
-46111,24.0821155,17.74251802
-46118,17.18339589,17.89315602
-46116,19.28484673,18.05239424
-46120,15.38646704,18.22004572
-46111,24.48825585,18.39591069
-46114,21.59021217,18.57977672
-46111,24.69233501,18.7714188
-46118,17.79462339,18.97059966
-46117,18.8970763,19.17706989
-46118,17.99969277,19.39056827
-46116,20.10247179,19.61082201
-46115,21.20541236,19.83754711
-46115,21.30851349,20.07044863
-46122,14.41177417,20.30922116
-46121,15.51519341,20.55354918
-46117,19.6187702,20.80310751
-46118,18.72250352,21.05756182
-46115,21.82639238,21.31656913
-46119,17.93043577,21.57977841
-46112,25.03463266,21.84683115
-46112,25.13898204,22.11736203
-46111,26.24348291,22.39099959
-46114,23.34813423,22.66736697
-46111,26.452935,22.94608267
-46116,21.55788417,23.22676137
-46115,22.66298073,23.50901472
-46115,22.76822365,23.7924523
-46116,21.87361189,24.07668243
-46115,22.97914442,24.36131317
-46116,22.08482021,24.64595324
-46116,22.19063822,24.93021303
-46114,24.29659741,25.21370553
-46112,26.40269672,25.49604739
-46114,24.50893513,25.77685988
-46113,25.61531158,26.05576994
-46112,26.72182502,26.33241108
-46113,25.82847439,26.60642446
-46113,25.93525865,26.87745978
-46110,29.04217674,27.14517622
-46107,32.14922758,27.40924336
-46107,32.25641013,27.66934199
-46107,32.36372331,27.92516495
-46112,27.47116605,28.17641788
-46110,29.57873728,28.42281993
-46115,24.68643593,28.66410438
-46107,32.79426091,28.90001924
-46115,24.90221115,29.13032775
-46110,30.01028555,29.3548088
-46108,32.11848303,29.57325734
-46109,31.22680251,29.78548465
-46117,23.33524288,29.99131853
-46113,27.44380306,30.19060347
-46110,30.55248194,30.38320071
-46112,28.66127842,30.56898821
-46108,32.77019139,30.74786053
-46110,30.87921975,30.91972871
-46113,27.9883624,31.08451997
-46107,34.0976182,31.24217739
-46110,31.20698605,31.39265954
-46114,27.31646483,31.53593996
-46107,34.42605342,31.67200662
-46109,32.53575068,31.80086133
-46108,33.64555549,31.92251904
-46110,31.75546672,32.0370071
-46110,31.86548322,32.14436444
-46109,32.97560387,32.24464073
-46109,33.08582752,32.33789547
-46114,28.19615301,32.42419701
-46109,33.30657922,32.50362161
-46107,35.41710497,32.57625234
-46111,31.52772913,32.64217809
-46107,35.63845052,32.70149246
-46112,30.74926799,32.75429268
-46108,34.86018037,32.80067852
-46110,32.9711865,32.84075121
-46110,33.08228519,32.87461232
-46114,29.19347529,32.90236278
-46107,36.3047556,32.92410179
-46105,38.41612495,32.93992585
-46105,38.52758216,32.94992785
-46111,32.63912602,32.95419615
-46112,31.75075536,32.95281378
-46113,30.86246897,32.9458577
-46116,27.97426566,32.93339816
-46111,33.08614422,32.91549811
-46113,31.19810346,32.8922127
-46113,31.31014215,32.863589
-46110,34.4222591,32.82966563
-46112,32.53445308,32.79047269
-46115,29.64672288,32.74603166
-46116,28.75906728,32.69635554
-46110,34.87148505,32.64144897
-46114,30.98397496,32.58130857
-46110,35.0965358,32.51592334
-46112,33.20916631,32.44527517
-46114,31.32186527,32.36933949
-46115,30.43463144,32.28808589
-46116,29.54746357,32.20147903
-46116,29.66036041,32.1094794
-46111,34.77332072,32.01204433
-46117,28.88634325,31.90912892
-46114,31.99942673,31.80068712
-46112,34.11256991,31.68667277
-46110,36.22577153,31.56704069
-46116,30.33903033,31.44174775
-46113,33.45234502,31.31075397
-46115,31.56571435,31.17402358
-46117,29.67913703,31.03152606
-46116,30.7926118,30.88323711
-46116,30.90613736,30.72913958
-46115,32.01971243,30.56922438
-46116,31.13333573,30.40349122
-46116,31.24700596,30.23194937
-46121,26.36072183,30.05461825
-46118,29.47448205,29.87152795
-46121,26.58828531,29.68271969
-46114,33.70213031,29.48824607
-46117,30.81601575,29.28817133
-46117,30.92994032,29.08257143
-46118,30.0439027,28.87153399
-46118,30.15790159,28.65515823
-46116,32.27193566,28.43355467
-46120,28.38600359,28.20684482
-46120,28.50010406,27.97516074
-46123,25.61423575,27.73864449
-46121,27.72839732,27.49744752
-46123,25.84258744,27.25172999
-46125,23.95680478,27.00165995
-46123,26.07104799,26.74741254
-46122,27.18531575,26.4891691
-46123,26.2996067,26.22711625
-46125,24.4139195,25.96144491
-46125,24.5282528,25.6923493
-46129,20.64260526,25.420026
-46122,27.75697552,25.14467289
-46124,25.87136222,24.86648816
-46125,24.98576401,24.58566934
-46124,26.10017953,24.30241233
-46127,23.21460741,24.01691048
-46125,25.3290463,23.72935366
-46130,20.44349481,23.43992741
-46128,22.55795158,23.14881218
-46128,22.67241524,22.85618251
-46128,22.78688442,22.56220639
-46133,17.90135773,22.26704459
-46125,26.01583381,21.97085011
-46129,22.13031126,21.67376768
-46128,23.2447887,21.37593328
-46131,20.35926475,21.07747385
-46132,19.47373802,20.7785069
-46133,18.58820712,20.47914034
-46132,19.70267065,20.17947229
-46128,23.81712723,19.87959096
-46133,18.93157546,19.57957464
-46134,18.04601393,19.27949167
-46134,18.16044125,18.97940056
-46131,21.27485602,18.67935006
-46131,21.38925683,18.3793794
-46135,17.50364228,18.07951842
-46138,14.61801095,17.77978792
-46135,17.73236144,17.48019988
-46132,20.84669233,17.18075781
-46139,13.96100222,16.88145713
-46138,15.07528968,16.58228552
-46140,13.18955331,16.28322334
-46140,13.30379167,15.98424402
-46136,17.41800336,15.68531453
-46135,18.53218694,15.38639579
-46138,15.646341,15.08744312
-46136,17.76046411,14.7884067
-46137,16.87455485,14.48923202
-46136,17.98861179,14.18986031
-46141,13.10263349,13.89022901
-46140,14.21661852,13.59027218
-46144,10.33056546,13.28992098
-46145,9.444472867,12.98910402
-46142,12.5583393,12.68774784
-46144,10.67216334,12.3857773
-46142,12.78594352,12.08311592
-46146,8.899678431,11.77968636
-46143,12.01336661,11.4754107
-46144,11.12700663,11.17021084
-46142,13.24059705,10.86400887
-46146,9.354136408,10.55672739
-46144,11.46762327,10.2482898
-46142,13.5810562,9.938620718
-46146,9.69443373,9.627646177
-46149,6.807754425,9.315294001
-46147,8.921016833,9.001494065
-46146,10.0342195,8.686178578
-46149,7.147360981,8.369282356
-46146,10.26043982,8.050743081
-46153,3.373454559,7.730501559
-46152,4.48640375,7.408501955
-46146,10.59928594,7.084692036
-46150,6.712099662,6.759023385
-46146,10.82484347,6.431451625
-46155,1.937515908,6.101936616
-46151,6.050115513,5.770442648
-46155,2.162640827,5.436938622
-46150,7.275090392,5.10139822
-46155,2.387462749,4.76380005
-46146,11.49975644,4.424127795
-46153,4.611969994,4.082370325
-46159,-1.27589804,3.738521811
-46158,-0.163849126,3.392581808
-46152,5.948115271,3.044555323
-46154,4.059993691,2.694452866
-46155,3.17178467,2.342290471
-46160,-1.716513255,1.988089706
-46160,-1.604901548,1.631877651
-46154,4.506618328,1.273686855
-46155,3.618044908,0.913555273
-46159,-0.27062327,0.551526172
-46153,5.840612327,0.187648018
-46164,-5.048249764,-0.178025664
-46158,1.062788992,-0.545436451
-46161,-1.82627287,-0.914521209
-46161,-1.715436816,-1.285212297
-46160,-0.60470431,-1.657437796
-46165,-5.494076816,-2.031121749
-46159,0.6164442,-2.406184429
-46160,-0.273142726,-2.782542606
-46162,-2.162839059,-3.160109837
-46166,-6.052646262,-3.538796762
-46165,-4.942565801,-3.9185114
-46163,-2.832599139,-4.299159453
-46163,-2.722747739,-4.680644613
-46162,-1.613013065,-5.062868852
-46166,-5.50339658,-5.445732721
-46170,-9.393899747,-5.829135626
-46167,-6.284524028,-6.212976103
-46167,-6.175270885,-6.597152063
-46168,-7.066141779,-6.981561031
-46168,-6.957138171,-7.366100361
-46174,-12.84826152,-7.750667426
-46173,-11.73951329,-8.135159787
-46172,-10.63089493,-8.519475334
-46172,-10.5224079,-8.90351241
-46173,-11.41405366,-9.287169901
-46172,-10.30583367,-9.670347302
-46167,-5.197749372,-10.05294477
-46169,-7.089802227,-10.43486313
-46173,-10.98199369,-10.81600389
-46167,-4.874325201,-11.19626922
-46174,-11.76679822,-11.5755619
-46175,-12.6594142,-11.95378529
-46175,-12.55217459,-12.33084324
-46177,-14.44508084,-12.70664004
-46176,-13.33813439,-13.08108031
-46175,-12.23133669,-13.45406892
-46174,-11.12468918,-13.82551092
-46176,-13.01819332,-14.19531138
-46176,-12.91185053,-14.5633754
-46179,-15.80566227,-14.92960791
-46179,-15.69962997,-15.2939137
-46184,-20.59375507,-15.65619725
-46181,-17.48803902,-16.01636276
-46182,-18.38248323,-16.37431402
-46183,-19.27708916,-16.72995449
-46183,-19.17185823,-17.08318719
-46181,-17.06679187,-17.43391478
-46180,-15.96189151,-17.78203961
-46182,-17.85715857,-18.12746376
-46180,-15.75259449,-18.47008913
-46181,-16.64820069,-18.80981764
-46184,-19.54397858,-19.14655133
-46186,-21.4399296,-19.48019258
-46181,-16.33605515,-19.81064438
-46187,-22.23235666,-20.13781059
-46187,-22.12883554,-20.46159622
-46186,-21.0254932,-20.78190786
-46182,-16.92233106,-21.098654
-46187,-21.81935053,-21.41174548
-46189,-23.71655301,-21.72109597
-46188,-22.61393991,-22.02662244
-46187,-21.51151262,-22.32824569
-46184,-18.40927257,-22.62589089
-46189,-23.30722113,-22.91948815
-46189,-23.20535972,-23.2089731
-46185,-19.10368972,-23.4942875
-46194,-28.00221253,-23.77537983
-46189,-22.90092954,-24.05220589
-46194,-27.79984214,-24.32472939
-46195,-28.69895171,-24.59292255
-46189,-22.59825965,-24.85676662
-46186,-19.49776732,-25.1162525
-46193,-26.39747612,-25.37138114
-46193,-26.29738741,-25.62216407
-46194,-27.19750257,-25.8686238
-46193,-26.09782298,-26.11079419
-46191,-23.99835001,-26.34872074
-46196,-28.89908501,-26.58246084
-46194,-26.80002936,-26.81208394
-46197,-29.70118442,-27.03767166
-46196,-28.60255155,-27.25931779
-46190,-22.5041321,-27.47712826
-46193,-25.40592744,-27.69122095
-46195,-27.3079389,-27.90172551
-46198,-30.21016785,-28.10878302
-46197,-29.11261562,-28.31254559
-46199,-31.01528357,-28.51317587
-46198,-29.91817303,-28.71084652
-46198,-29.82128535,-28.90573951
-46204,-35.72462185,-29.0980454
-46195,-26.62818388,-29.2879626
-46198,-29.53197275,-29.47569641
-46201,-32.4359898,-29.66145819
-46196,-27.34023636,-29.84546431
-46200,-31.24471373,-30.02793514
-46199,-30.14942325,-30.20909397
-46198,-29.05436623,-30.38916596
-46198,-28.95954397,-30.56837692
-46196,-26.86495779,-30.74695225
-46199,-29.770609,-30.92511575
-46199,-29.67649891,-31.10308848
-46197,-27.5826288,-31.28108761
-46205,-35.48899998,-31.45932533
-46202,-32.39561376,-31.63800769
-46198,-28.30247141,-31.81733358
-46205,-35.20957424,-31.99749367
-46198,-28.11692352,-32.17866944
-46205,-35.02452054,-32.36103223
-46204,-33.93236659,-32.54474234
-46197,-26.84046294,-32.72994822
-46204,-33.74881086,-32.9167857
-46207,-36.65741163,-33.10537728
-46206,-35.56626652,-33.2958315
-46205,-34.47537679,-33.4882424
-46203,-32.3847437,-33.68268899
-46205,-34.29436851,-33.87923489
-46202,-31.20425248,-34.07792797
-46208,-37.11439686,-34.27880008
-46204,-33.0248029,-34.4818669
-46205,-33.93547185,-34.68712785
-46210,-38.84640494,-34.89456605
-46204,-32.75760342,-35.10414842
-46210,-38.66906852,-35.31582578
-46210,-38.58080148,-35.52953313
-46208,-36.49280352,-35.74518996
-46210,-38.40507587,-35.96270059
-46210,-38.31761976,-36.18195471
-46200,-28.23043639,-36.40282787
-46208,-36.14352699,-36.62518213
-46205,-33.05689276,-36.8488668
-46206,-33.97053491,-37.07371913
-46210,-37.88445466,-37.29956524
-46209,-36.7986532,-37.52622096
-46217,-44.71313172,-37.75349288
-46211,-38.62789143,-37.9811793
-46210,-37.54293351,-38.20907137
-46209,-36.45825916,-38.43695424
-46210,-37.37386955,-38.6646082
-46209,-36.28976586,-38.89180992
-46211,-38.20594928,-39.11833371
-46214,-41.12242096,-39.34395277
-46212,-39.03918209,-39.56844053
-46212,-38.95623383,-39.79157191
-46215,-41.87357734,-40.01312466
-46219,-45.79121377,-40.23288064
-46212,-38.70914428,-40.45062715
-46217,-43.62737003,-40.66615813
-46211,-37.54589214,-40.8792755
-46214,-40.46471178,-41.0897903
-46211,-37.38383007,-41.29752386
-46214,-40.30324815,-41.50230894
-46218,-44.22296714,-41.70399076
-46216,-42.14298818,-41.90242801
-46222,-48.06331239,-42.09749377
-46210,-35.98394089,-42.28907631
-46215,-40.90487479,-42.47707991
-46219,-44.82611519,-42.66142546
-46218,-43.74766321,-42.84205111
-46218,-43.66951995,-43.01891269
-46216,-41.59168651,-43.19198409
-46218,-43.51416398,-43.3612576
-46220,-45.43695344,-43.52674399
-46213,-38.360056,-43.68847265
-46223,-48.28347272,-43.84649148
-46219,-44.20720468,-44.00086684
-46218,-43.13125296,-44.15168318
-46215,-40.05561862,-44.29904279
-46229,-53.98030274,-44.44306528
-46218,-42.90530637,-44.5838871
-46220,-44.83063056,-44.72166082
-46222,-46.75627637,-44.85655448
-46224,-48.68224484,-44.98875074
-46220,-44.60853703,-45.11844605
-46223,-47.53515396,-45.24584965
-46217,-41.46209666,-45.37118262
-46221,-45.38936618,-45.49467681
-46223,-47.31696353,-45.61657372
-46220,-44.24488974,-45.73712342
-46220,-44.17314581,-45.85658334
-46219,-43.10173277,-45.97521712
-46219,-43.03065163,-46.0932934
-46221,-44.95990337,-46.21108464
-46224,-47.88948901,-46.3288659
-46221,-44.81940954,-46.44691368
-46223,-46.74966595,-46.56550472
-46222,-45.68025923,-46.68491486
-46219,-42.61119035,-46.8054179
-46225,-48.5424603,-46.92728449
-46220,-43.47407005,-47.05078107
-46225,-48.40602057,-47.17616881
-46223,-46.33831283,-47.30370262
-46228,-51.27094777,-47.43363021
-46228,-51.20392637,-47.56619111
-46228,-51.13724956,-47.70161584
-46228,-51.0709183,-47.84012507
-46227,-50.00493353,-47.98192883
-46224,-46.93929618,-48.12722573
-46223,-45.87400718,-48.27620236
-46223,-45.80906746,-48.42903254
-46224,-46.74447794,-48.58587682
-46228,-50.68023955,-48.74688191
-46225,-47.61635318,-48.91218019
-46223,-45.55281976,-49.08188931
-46231,-53.48964019,-49.2561118
-46225,-47.42681536,-49.43493478
-46231,-53.36434617,-49.61842972
-46226,-48.30223351,-49.80665226
-46230,-52.24047827,-49.99964207
-46232,-54.17908132,-50.19742282
-46229,-51.11804354,-50.40000222
-46229,-51.0573658,-50.60737207
-46227,-48.99704896,-50.81950843
-46228,-49.93709389,-51.03637188
-46229,-50.87750144,-51.25790778
-46232,-53.81827247,-51.48404668
-46227,-48.75940781,-51.71470476
-46228,-49.7009083,-51.94978435
-46229,-50.6427748,-52.18917451
-46229,-50.58500811,-52.43275171
-46227,-48.52760908,-52.68038054
-46237,-58.47057852,-52.93191449
-46232,-53.41391725,-53.18719685
-46232,-53.35762608,-53.44606151
-46228,-49.30170582,-53.70833402
-46232,-53.24615726,-53.97383251
-46239,-60.19098121,-54.24236873
-46233,-54.13617845,-54.51374914
-46232,-53.08174977,-54.78777592
-46239,-60.02769595,-55.06424815
-46230,-50.97401777,-55.34296281
-46232,-52.92071599,-55.62371595
-46233,-53.86779139,-55.90630373
-46236,-56.8152447,-56.19052346
-46231,-51.76307671,-56.47617468
-46239,-59.71128814,-56.76306009
-46237,-57.65987974,-57.05098655
-46235,-55.60885226,-57.33976589
-46243,-63.55820642,-57.62921582
-46239,-59.50794296,-57.91916062
-46240,-60.45806258,-58.20943186
-46238,-58.40856602,-58.49986898
-46237,-57.35945397,-58.79031983
-46240,-60.31072714,-59.08064106
-46242,-62.26238623,-59.37069854
-46236,-56.21443193,-59.66036754
-46244,-64.16686493,-59.94953293
-46242,-62.11968591,-60.23808924
-46244,-64.07289554,-60.52594068
-46242,-62.0264945,-60.81300103
-46237,-56.98048344,-61.09919345
-46240,-59.93486302,-61.38445028
-46238,-57.8896339,-61.66871268
-46241,-60.84479671,-61.9519303
-46238,-57.80035211,-62.2340608
-46238,-57.75630071,-62.51506942
-46249,-68.71264316,-62.79492844
-46246,-65.66938008,-63.07361662
-46247,-66.62651207,-63.35111864
-46243,-62.58403975,-63.6274245
-46248,-67.54196373,-63.90252895
-46239,-58.5002846,-64.17643081
-46242,-61.45900296,-64.44913247
-46248,-67.41811938,-64.72063923
-46247,-66.37763445,-64.9909588
-46247,-66.33754875,-65.26010073
-46243,-62.29786283,-65.5280759
-46247,-66.25857726,-65.7948961
-46244,-63.21969259,-66.06057359
-46247,-66.18120937,-66.3251207
-46246,-65.14312815,-66.58854958
-46252,-71.10544945,-66.85087186
-46248,-67.06817381,-67.11209852
-46250,-69.03130175,-67.37223965
-46247,-65.99483379,-67.63130447
-46254,-72.95877042,-67.88930122
-46245,-63.92311217,-68.1462372
-46246,-64.88785952,-68.4021189
-46254,-72.85301296,-68.65695211
-46250,-68.81857298,-68.91074214
-46251,-69.78454005,-69.16349403
-46246,-64.75091465,-69.41521291
-46252,-70.71769723,-69.66590427
-46255,-73.68488825,-69.91557441
-46251,-69.65248816,-70.16423078
-46251,-69.62049741,-70.41188246
-46250,-68.58891644,-70.6585406
-46253,-71.55774566,-70.90421893
-46250,-68.52698551,-71.14893416
-46253,-71.49663639,-71.39270655
-46254,-72.46669873,-71.63556031
-46252,-70.43717292,-71.87752412
-46252,-70.40805935,-72.11863152
-46253,-71.37935842,-72.35892135
-46257,-75.35107051,-72.59843811
-46260,-78.323196,-72.83723231
-46250,-68.29573524,-73.07536075
-46254,-72.26868861,-73.31288676
-46261,-79.24205645,-73.54988033
-46257,-75.21583911,-73.78641831
-46254,-72.19003693,-74.02258437
-46257,-75.16465024,-74.25846903
-46259,-77.13967937,-74.49416951
-46251,-69.11512464,-74.72978962
-46256,-74.09098635,-74.96543947
-46257,-75.06726481,-75.20123515
-46258,-76.04396032,-75.43729835
-46257,-75.02107316,-75.67375591
-46260,-77.99860361,-75.91073922
-46261,-78.97655196,-76.1483837
-46260,-77.95491846,-76.38682809
-46259,-76.93370338,-76.62621372
-46253,-70.91290697,-76.8666838
-46261,-78.89252947,-77.10838256
-46262,-79.87257112,-77.35145445
-46258,-75.85303215,-77.59604321
-46263,-80.83391279,-77.84229104
-46259,-76.81521324,-78.09033766
-46259,-76.79693372,-78.34031942
-46258,-75.77907443,-78.59236841
-46261,-78.76163555,-78.84661156
-46263,-80.74461727,-79.10316982
-46264,-81.72801978,-79.36215729
-46260,-77.71184323,-79.62368051
-46265,-82.6960878,-79.8878377
-46261,-78.68075363,-80.15471808
-46262,-79.66584087,-80.42440133
-46269,-86.65134967,-80.69695701
-46265,-82.63728015,-80.97244418
-46265,-82.62363243,-81.25091101
-46260,-77.61040663,-81.53239452
-46263,-80.59760286,-81.81692044
-46263,-80.58522121,-82.10450312
-46262,-79.57326178,-82.39514555
-46265,-82.56172465,-82.68883951
-46262,-79.5506099,-82.98556577
-46264,-81.53991759,-83.28529445
-46265,-82.52964779,-83.58798536
-46267,-84.51980054,-83.89358853
-46264,-81.5103759,-84.20204482
-46264,-81.50137389,-84.51328648
-46265,-82.49279455,-84.82723793
-46268,-85.4846379,-85.14381649
-46272,-89.47690395,-85.46293318
-46270,-87.46959271,-85.78449361
-46269,-86.46270416,-86.10839877
-46272,-89.45623831,-86.43454599
-46266,-83.45019512,-86.76282976
-46270,-87.44457457,-87.09314263
-46274,-91.43937661,-87.42537607
-46275,-92.43460121,-87.75942128
-46270,-87.43024831,-88.09516998
-46267,-84.42631784,-88.43251515
-46276,-93.42280974,-88.77135175
-46276,-93.41972392,-89.11157729
-46269,-86.41706028,-89.45309245
-46272,-89.41481875,-89.79580154
-46272,-89.4129992,-90.13961294
-46274,-91.41160152,-90.48443944
-46276,-93.41062558,-90.83019854
-46271,-88.41007127,-91.17681264
-46276,-93.40993842,-91.52420914
-46276,-93.41022689,-91.87232057
-46273,-90.41093653,-92.22108456
-46273,-90.41206716,-92.57044376
-46276,-93.41361861,-92.92034578
-46278,-95.41559068,-93.27074297
-46277,-94.4179832,-93.62159228
-46274,-91.42079594,-93.97285498
-46274,-91.4240287,-94.32449641
-46277,-94.42768125,-94.67648572
-46277,-94.43175337,-95.02879554
-46280,-97.43624481,-95.3814017
-46279,-96.44115532,-95.73428295
-46278,-95.44648465,-96.08742063
-46280,-97.45223253,-96.44079844
-46279,-96.45839868,-96.79440214
-46276,-93.46498281,-97.14821938
-46281,-98.47198462,-97.50223946
-46280,-97.47940382,-97.85645317
-46277,-94.48724009,-98.21085268
-46286,-103.4954931,-98.56543145
-46277,-94.50416252,-98.92018418
-46285,-102.513248,-99.27510679
-46283,-100.5227492,-99.63019646
-46283,-100.5326658,-99.98545172
-46281,-98.5429973,-100.3408726
-46279,-96.55374344,-100.6964605
-46280,-97.56490378,-101.0522189
-46288,-105.5764779,-101.408153
-46285,-102.5884655,-101.7642704
-46286,-103.600866,-102.1205808
-46284,-101.6136791,-102.477097
-46283,-100.6269043,-102.8338343
-46286,-103.6405411,-103.1908116
-46289,-106.6545891,-103.5480509
-46285,-102.6690479,-103.9055781
-46288,-105.6839169,-104.2634229
-46289,-106.6991957,-104.6216191
-46288,-105.7148837,-104.9802048
-46292,-109.7309805,-105.3392226
-46287,-104.7474855,-105.6987193
-46289,-106.7643982,-106.0587464
-46289,-106.781718,-106.4193601
-46285,-102.7994445,-106.7806208
-46290,-107.817577,-107.1425935
-46289,-106.8361149,-107.5053474
-46288,-105.8550578,-107.8689555
-46291,-108.8744049,-108.2334949
-46284,-101.8941558,-108.5990459
-46288,-105.9143097,-108.9656919
-46294,-111.934866,-109.3335191
-46289,-106.9558242,-109.7026155
-46296,-113.9771836,-110.073071
-46295,-112.9989435,-110.4449764
-46295,-113.0211032,-110.8184228
-46292,-110.0436621,-111.1935013
-46296,-114.0666195,-111.5703018
-46296,-114.0899747,-111.9489127
-46291,-109.113727,-112.3294198
-46295,-113.1378756,-112.711906
-46300,-118.1624199,-113.0964502
-46296,-114.1873591,-113.4831268
-46296,-114.2126924,-113.8720047
-46293,-111.2384191,-114.2631469
-46296,-114.2645383,-114.65661
-46299,-117.2910494,-115.0524429
-46297,-115.3179515,-115.450687
-46298,-116.3452438,-115.8513756
-46300,-118.3729255,-116.2545332
-46298,-116.4009957,-116.6601753
-46293,-111.4294536,-117.0683086
-46301,-119.4582984,-117.4789303
-46304,-122.4875292,-117.8920288
-46301,-119.5171451,-118.3075833
-46299,-117.5471453,-118.7255642
-46299,-117.5775287,-119.1459338
-46304,-122.6082946,-119.5686466
-46296,-114.639442,-119.9936498
-46301,-119.67097,-120.4208846
-46299,-117.7028775,-120.8502866
-46300,-118.7351637,-121.281787
-46300,-118.7678276,-121.7153139
-46300,-118.8008683,-122.1507935
-46307,-125.8342846,-122.5881512
-46305,-123.8680757,-123.0273132
-46304,-122.9022404,-123.468208
-46309,-127.9367779,-123.9107678
-46304,-122.971687,-124.3549299
-46303,-122.0069666,-124.8006382
-46302,-121.0426158,-125.2478451
-46312,-131.0786335,-125.6965124
-46302,-121.1150185,-126.1466127
-46307,-126.1517697,-126.598131
-46308,-127.1888861,-127.0510653
-46307,-126.2263666,-127.5054281
-46310,-129.2642099,-127.9612467
-46307,-126.302415,-128.4185638
-46311,-130.3409806,-128.8774382
-46307,-126.3799057,-129.3379446
-46313,-132.419189,-129.8001734
-46312,-131.4588294,-130.2642302
-46313,-132.4988255,-130.7302353
-46310,-129.5391763,-131.1983221
-46317,-136.5798804,-131.6686363
-46317,-136.6209366,-132.1413336
-46316,-135.6623437,-132.6165776
-46309,-128.7041003,-133.0945377
-46318,-137.7462052,-133.5753862
-46318,-137.7886572,-134.0592949
-46315,-134.8314548,-134.546432
-46318,-137.8745967,-135.036958
-46312,-131.9180817,-135.5310222
-46319,-138.9619083,-136.0287577
-46321,-141.0060752,-136.5302776
-46318,-138.050581,-137.0356694
-46315,-135.0954243,-137.544991
-46313,-133.1406037,-138.0582649
-46320,-140.1861178,-138.5754733
-46316,-136.2319652,-139.0965528
-46321,-141.2781443,-139.6213892
-46314,-134.3246539,-140.1498118
-46317,-137.3714923,-140.681589
-46327,-147.418658,-141.2164223
-46321,-141.4661497,-141.7539418
-46318,-138.5139658,-142.2937011
-46324,-144.5621047,-142.8351731
-46325,-145.6105649,-143.3777453
-46325,-145.6593449,-143.9207161
-46322,-142.708443,-144.4632909
-46325,-145.7578577,-145.004579
-46322,-142.8075875,-145.5435906
-46327,-147.8576306,-146.0792346
-46327,-147.9079856,-146.6103166
-46325,-145.9586506,-147.1355373
-46320,-141.0096241,-147.653492
-46328,-149.0609044,-148.1626703
-46326,-147.1124899,-148.6614558
-46328,-149.1643788,-149.1481277
-46327,-148.2165694,-149.6208619
-46330,-151.26906,-150.0777328
-46330,-151.3218488,-150.5167167
-46331,-152.3749342,-150.9356942
-46325,-146.4283142,-151.3324549
-46331,-152.4819873,-151.7047011
-46329,-150.5359515,-152.0500535
-46327,-148.590205,-152.3660563
-46337,-158.6447461,-152.6501837
-46329,-150.6995728,-152.8998462
-46328,-149.7546833,-153.1123979
-46333,-154.8100758,-153.2851444
-46332,-153.8657484,-153.4153501
-46330,-151.9216991,-153.5002473
-46335,-156.977926,-153.5370449
-46330,-152.0344273,-153.5229368
-46333,-155.091201,-153.4551121
-46337,-159.148245,-153.3307644
-46331,-153.2055575,-153.1471013
-46330,-152.2631365,-152.9013549
-46330,-152.3209798,-152.5907913
-46329,-151.3790856,-152.212721
-46331,-153.4374518,-151.7645092
-46327,-149.4960763,-151.2435855
-46328,-150.5549571,-150.6474542
-46332,-154.6140921,-149.973704
-46327,-149.6734792,-149.2200184
-46327,-149.7331162,-148.3841843
-46328,-150.7930012,-147.4641023
-46325,-147.8531318,-146.4577951
-46320,-142.9135061,-145.3634168
-46317,-139.9741217,-144.1792607
-46319,-142.0349766,-142.9037682
-46317,-140.0960685,-141.5355356
-46317,-140.1573952,-140.0733218
-46317,-140.2189546,-138.5160548
-46313,-136.2807443,-136.8628382
-46307,-130.3427622,-135.1129566
-46314,-137.4050059,-133.2658809
-46308,-131.4674732,-131.3212726
-46305,-128.5301618,-129.2789883
-46299,-122.5930694,-127.1390827
-46302,-125.6561937,-124.9018113
-46295,-118.7195324,-122.5676327
-46297,-120.7830831,-120.1372098
-46288,-111.8468435,-117.6114108
-46293,-116.9108112,-114.9913092
-46293,-116.9749838,-112.2781831
-46283,-107.039359,-109.4735139
-46289,-113.1039344,-106.5789848
-46279,-103.1687076,-103.5964774
-46276,-100.2336761,-100.528069
-46274,-98.29883752,-97.37602848
-46274,-98.36418947,-94.14281138
-46265,-89.42972947,-90.83105495
-46262,-86.49545507,-87.44357206
-46258,-82.56136381,-83.98334476
-46257,-81.62745322,-80.45351712
-46253,-77.69372082,-76.85738762
-46253,-77.76016413,-73.19840094
-46240,-64.82678065,-69.48013927
-46244,-68.89356788,-65.70631319
-46238,-62.96052332,-61.88075203
-46235,-60.02764444,-58.00739393
-46232,-57.09492873,-54.09027554
-46223,-48.16237367,-50.13352129
-46221,-46.22997672,-46.14133259
-46214,-39.29773535,-42.11797661
-46213,-38.36564702,-38.06777501
-46205,-30.43370918,-33.99509248
-46203,-28.50191928,-29.90432518
-46198,-23.57027479,-25.7998892
-46197,-22.63877313,-21.68620896
-46194,-19.70741176,-17.56770569
-46188,-13.77618812,-13.44878598
-46180,-5.845099644,-9.333830509
-46185,-10.91414378,-5.227182929
-46180,-5.983317966,-1.133138956
-46169,4.947380364,2.944064238
-46163,10.87795377,7.000258363
-46162,11.80840482,11.031354
-46157,16.73873606,15.03335021
-46147,26.66895007,19.00234376
-46156,17.59904939,22.93453793
-46149,24.52903659,26.82625077
-46143,30.45891421,30.67392304
-46134,39.38868481,34.47412546
-46135,38.31835094,38.22356559
-46128,45.24791514,41.91909407
-46126,47.17737994,45.5577104
-46123,50.1067479,49.13656803
-46124,49.03602153,52.65297904
-46120,52.96520337,56.10441811
-46115,57.89429593,59.48852599
-46110,62.82330173,62.8031124
-46106,66.75222329,66.04615826
-46101,71.6810631,69.21581752
-46102,70.60982367,72.31041824
-46098,74.53850748,75.32846327
-46092,80.46711702,78.26863029
-46095,77.39565476,81.12977139
-46084,88.32412318,83.91091204
-46086,86.25252473,86.61124967
-46086,86.18086187,89.2301517
-46080,92.10913704,91.76715305
-46075,97.03735267,94.22195335
-46079,92.9655112,96.59441356
-46077,94.89361504,98.88455226
-46073,98.82166659,101.0925415
-46067,104.7496683,103.2187025
-46068,103.6776224,105.2635005
-46066,105.6055315,107.2275397
-46063,108.5333978,109.111558
-46059,112.4612237,110.9164209
-46057,114.3890115,112.643116
-46058,113.3167637,114.292746
-46055,116.2444825,115.866523
-46053,118.1721701,117.3657611
-46052,119.0998291,118.7918704
-46048,123.0274615,120.1463493
-46052,118.9550698,121.4307777
-46046,124.8826561,122.6468102
-46042,128.8102227,123.7961681
-46045,125.7377719,124.8806327
-46044,126.6653059,125.9020378
-46046,124.592827,126.8622625
-46043,127.5203372,127.7632237
-46043,127.4478389,128.6068694
-46040,130.3753341,129.395171
-46040,130.3028251,130.1301166
-46040,130.2303141,130.8137044
-46040,130.1578031,131.4479355
-46037,133.0852943,132.0348077
-46034,136.0127898,132.5763092
-46041,128.9402917,133.0744123
-46037,132.8678022,133.531068
-46033,136.7953232,133.9482001
-46036,133.7228569,134.3277
-46037,132.6504052,134.671422
-46034,135.5779704,134.9811784
-46032,137.5055543,135.2587353
-46034,135.4331589,135.5058089
-46031,138.3607864,135.7240617
-46033,136.2884386,135.9150993
-46036,133.2161176,136.0804679
-46034,135.1438252,136.2216514
-46036,133.0715635,136.34007
-46033,135.9993344,136.4370778
-46033,135.9271398,136.5139623
-46032,136.8549816,136.5719429
-46034,134.7828617,136.6121708
-46037,131.710782,136.6357285
-46035,133.6387443,136.6436305
-46029,139.5667505,136.6368235
-46030,138.4948024,136.616187
-46033,135.4229019,136.5825353
-46025,143.3510508,136.5366183
-46031,137.2792509,136.4791234
-46033,135.207504,136.4106775
-46034,134.1358117,136.3318494
-46035,133.064176,136.2431519
-46031,136.9925985,136.1450449
-46030,137.921081,136.0379374
-46033,134.8496252,135.9221911
-46034,133.7782328,135.7981229
-46033,134.7069055,135.6660082
-46033,134.635645,135.5260842
-46032,135.5644529,135.3785524
-46030,137.4933309,135.2235825
-46031,136.4222807,135.0613151
-46030,137.3513038,134.8918648
-46030,137.2804019,134.7153235
-46029,138.2095766,134.5317631
-46035,132.1388294,134.3412387
-46029,138.068162,134.143791
-46032,134.9975758,133.9394492
-46034,132.9270726,133.7282336
-46036,130.8566536,133.5101576
-46035,131.7863206,133.2852303
-46033,133.716075,133.0534587
-46029,137.6459183,132.8148492
-46034,132.575852,132.5694095
-46036,130.5058775,132.3171505
-46037,129.4359964,132.0580874
-46033,133.36621,131.792241
-46037,129.2965197,131.5196393
-46030,136.2269271,131.2403178
-46038,128.1574334,130.9543208
-46039,127.0880401,130.6617018
-46032,134.0187486,130.3625244
-46037,128.9495603,130.0568622
-46040,125.8804764,129.7447999
-46034,131.8114983,129.4264324
-46039,126.7426274,129.1018661
-46035,130.673865,128.7712178
-46040,125.6052123,128.4346154
-46039,126.5366707,128.0921972
-46038,127.4682414,127.7441117
-46038,127.3999257,127.3905178
-46039,126.3317249,127.0315836
-46037,128.2636401,126.6674863
-46040,125.1956727,126.298412
-46038,127.1278238,125.9245545
-46040,125.0600946,125.5461153
-46038,126.9924864,125.1633023
-46041,123.9250002,124.7763299
-46040,124.8576374,124.3854175
-46040,124.7903989,123.9907892
-46043,121.723286,123.592673
-46038,126.6562998,123.1912995
-46040,124.5894414,122.7869019
-46047,117.5227119,122.3797142
-46046,118.4561124,121.969971
-46046,118.389644,121.5579062
-46039,125.3233078,121.1437521
-46045,119.2571047,120.7277386
-46047,117.191036,120.3100919
-46043,121.1251024,119.8910341
-46041,123.0593053,119.4707812
-46046,117.9936454,119.0495431
-46041,122.9281238,118.6275219
-46048,115.8627416,118.2049111
-46041,122.7974996,117.7818944
-46041,122.7323989,117.3586449
-46047,116.6674403,116.9353239
-46049,114.6026249,116.5120798
-46048,115.5379536,116.0890474
-46050,113.4734272,115.6663465
-46042,121.4090467,115.2440814
-46047,116.344813,114.8223397
-46048,115.2807269,114.4011919
-46049,114.2167893,113.9806899
-46051,112.1530012,113.560867
-46053,110.0893632,113.141737
-46053,110.0258764,112.7232935
-46056,106.9625414,112.3055098
-46056,106.8993592,111.8883382
-46049,113.8363304,111.4717101
-46054,108.773456,111.0555357
-46052,110.7107366,110.6397039
-46056,106.6481732,110.2240828
-46051,111.5857663,109.8085194
-46048,114.5235169,109.3928405
-46055,107.4614255,108.9768527
-46054,108.399493,108.5603437
-46056,106.3377201,108.1430824
-46053,109.2761074,107.7248202
-46051,111.2146557,107.3052919
-46052,110.1533657,106.8842169
-46056,106.092238,106.4613005
-46057,105.0312733,106.0362353
-46057,104.9704723,105.6087026
-46054,107.9098355,105.1783744
-46058,103.8493637,104.7449145
-46052,109.7890574,104.3079811
-46057,104.7289173,103.867228
-46057,104.668944,103.4223073
-46058,103.6091381,102.9728709
-46061,100.5495001,102.5185731
-46062,99.49003056,102.0590723
-46063,98.43073014,101.5940339
-46063,98.37159936,101.1231321
-46061,100.3126387,100.6460525
-46065,96.25384884,100.162494
-46064,97.19523016,99.67217161
-46064,97.13678322,99.17481846
-46063,98.07850853,98.6701881
-46060,101.0204066,98.15805667
-46059,101.9624779,97.63822506
-46066,94.90472283,97.11052094
-46063,97.84714198,96.57480069
-46066,94.78973574,96.0309512
-46065,95.73250457,95.47889156
-46065,95.6754489,94.91857456
-46068,92.61856916,94.34998805
-46066,94.56186577,93.77315608
-46066,94.50533914,93.18813987
-46069,91.44898966,92.59503854
-46065,95.39281774,91.9939896
-46072,88.33682374,91.38516924
-46071,89.28100803,90.76879236
-46072,88.225371,90.14511229
-46073,87.16991298,89.51442031
-46072,88.11463432,88.87704489
-46071,89.05953536,88.23335063
-46068,92.00461643,87.58373693
-46069,90.94987785,86.92863649
-46073,86.89531993,86.26851338
-46073,86.84094297,85.60386102
-46072,87.78674726,84.93519982
-46076,83.73273309,84.26307464
-46074,85.67890074,83.58805201
-46074,85.62525047,82.91071715
-46077,82.57178254,82.23167085
-46077,82.5184972,81.55152618
-46077,82.4653947,80.87090506
-46077,82.41247528,80.19043473
-46081,78.35973914,79.51074418
-46084,75.30718653,78.83246049
-46078,81.25481764,78.15620519
-46085,74.20263268,77.48259061
-46084,75.15063185,76.81221629
-46084,75.09881533,76.1456655
-46085,74.04718331,75.48350177
-46083,75.99573596,74.82626569
-46085,73.94447344,74.17447178
-46089,69.89339591,73.52860556
-46086,72.84250353,72.88912094
-46091,67.79179643,72.25643771
-46086,72.74127476,71.63093938
-46088,70.69093865,71.01297133
-46089,69.64078822,70.40283922
-46085,73.59082359,69.8008077
-46088,70.54104486,69.20709949
-46092,66.49145214,68.62189481
-46088,70.44204552,68.04533113
-46094,64.3928251,67.47750325
-46091,67.34379095,66.91846379
-46090,68.29494315,66.36822394
-46094,64.24628178,65.82675466
-46096,62.19780688,65.2939881
-46096,62.14951852,64.76981938
-46096,62.10141675,64.25410875
-46095,63.05350161,63.74668389
-46094,64.00577314,63.24734257
-46096,61.95823137,62.75585556
-46090,67.91087632,62.2719697
-46095,62.86370802,61.79541122
-46100,57.81672647,61.32588917
-46094,63.76993169,60.86309902
-46103,54.72332366,60.40672634
-46093,64.6769024,59.95645058
-46100,57.63066787,59.51194885
-46096,61.58462008,59.07289974
-46104,53.53875899,58.63898706
-46101,56.49308457,58.2099036
-46097,60.4475968,57.78535471
-46098,59.40229562,57.36506182
-46102,55.35718099,56.94876578
-46099,58.31225287,56.53623003
-46101,56.26751119,56.12724354
-46099,58.22295588,55.72162354
-46100,57.17858689,55.31921797
-46105,52.13440413,54.9199077
-46098,59.09040753,54.52360838
-46103,54.046597,54.13027206
-46101,56.00297244,53.73988844
-46101,55.95953377,53.35248578
-46102,54.91628088,52.96813152
-46102,54.87321365,52.58693253
-46110,46.83033199,52.20903498
-46108,48.78763577,51.83462395
-46110,46.74512486,51.46392265
-46104,52.70279914,51.09719133
-46104,52.66065848,50.73472583
-46103,53.61870273,50.37685593
-46106,50.57693176,50.02394331
-46107,49.53534542,49.67637925
-46107,49.49394354,49.33458218
-46106,50.45272599,48.99899485
-46110,46.41169258,48.67008142
-46111,45.37084316,48.3483243
-46109,47.33017755,48.03422085
-46108,48.28969557,47.72827997
-46107,49.24939704,47.43101856
-46110,46.20928178,47.14295792
-46103,53.16934959,46.86462011
-46106,50.12960028,46.59652429
-46116,40.09003364,46.33918307
-46112,44.05064947,46.0930989
-46112,44.01144756,45.85876053
-46107,48.97242769,45.63663954
-46112,43.93358965,45.42718703
-46111,44.89493321,45.23083044
-46112,43.85645814,45.04797048
-46113,42.81816421,44.87897833
-46118,37.78005119,44.72419298
-46110,45.74211882,44.58391883
-46107,48.70436687,44.45842347
-46111,44.66679509,44.34793577
-46113,42.62940322,44.25264423
-46108,47.592191,44.1726955
-46109,46.55515818,44.10819329
-46109,46.51830447,44.05919748
-46114,41.48162961,44.02572356
-46112,43.44513333,44.00774227
-46115,40.40881534,44.00517959
-46114,41.37267536,44.01791698
-46114,41.33671309,44.04579181
-46112,43.30092824,44.08859814
-46114,41.26532052,44.14608767
-46110,45.22988963,44.21797095
-46112,43.19463525,44.3039188
-46105,50.15955708,44.40356387
-46110,45.1246548,44.5165025
-46111,44.08992809,44.6422966
-46107,48.05537663,44.78047578
-46114,41.02100009,44.93053955
-46107,47.98679814,45.09195965
-46112,42.95277044,45.26418246
-46112,42.91891664,45.44663146
-46107,47.8852364,45.63870978
-46108,46.85172937,45.83980272
-46108,46.81839519,46.04928037
-46105,49.78523351,46.26650012
-46109,45.75224396,46.49080922
-46103,51.71942617,46.72154733
-46107,47.68677976,46.95804892
-46107,47.65430436,47.19964573
-46104,50.62199957,47.44566908
-46109,45.58986503,47.69545213
-46105,49.55790032,47.94833205
-46108,46.52610505,48.20365207
-46107,47.49447882,48.46076352
-46106,48.46302122,48.71902762
-46101,53.43173184,48.97781728
-46110,44.40061026,49.23651877
-46105,49.36965606,49.49453322
-46107,47.33886881,49.75127808
-46113,41.30824808,50.00618842
-46098,56.27779343,50.25871813
-46110,44.24750442,50.50834106
-46102,52.21738061,50.75455194
-46097,57.18742155,50.99686729
-46099,55.15762678,51.23482623
-46104,50.12799583,51.4679911
-46103,51.09852824,51.69594804
-46104,50.06922355,51.91830749
-46102,52.04008127,52.13470457
-46105,49.01110092,52.34479932
-46100,53.98228201,52.54827696
-46104,49.95362406,52.74484794
-46101,52.92512657,52.93424798
-46102,51.89678902,53.11623803
-46100,53.86861093,53.29060409
-46104,49.84059177,53.45715697
-46098,55.81273102,53.61573206
-46098,55.78502817,53.76618883
-46095,58.75748269,53.90841049
-46104,49.73009403,54.04230337
-46100,53.70286167,54.16779637
-46093,60.67578506,54.28484026
-46102,51.64886365,54.39340698
-46098,55.62209688,54.49348879
-46101,52.59548419,54.58509746
-46100,53.56902502,54.66826332
-46103,50.54271879,54.74303433
-46098,55.51656493,54.80947501
-46096,57.49056286,54.86766544
-46096,57.46471198,54.91770013
-46097,56.43901172,54.95968691
-46098,55.41346146,54.99374574
-46094,59.3880606,55.02000757
-46102,51.36280854,55.03861313
-46098,55.33770465,55.04971174
-46094,59.31274833,55.05346011
-46097,56.28793893,55.05002114
-46096,57.26327584,55.03956276
-46101,52.23875841,55.02225677
-46104,49.21438599,54.99827769
-46098,55.19015795,54.96780173
-46099,54.16607363,54.93100567
-46098,55.14213237,54.88806594
-46099,54.1183335,54.83915762
-46099,54.09467637,54.78445358
-46098,55.07116028,54.72412369
-46100,53.04778456,54.65833402
-46100,53.02454854,54.58724623
-46096,57.0014515,54.51101691
-46100,52.97849277,54.42979713
-46103,49.95567164,54.3437319
-46100,52.9329874,54.25295989
-46096,56.91043933,54.15761309
-46099,53.88802673,54.05781659
-46101,51.86574888,53.95368844
-46094,58.84360503,53.84533958
-46098,54.82159446,53.73287378
-46100,52.79971644,53.61638773
-46096,56.77797021,53.49597113
-46097,55.75635502,53.37170679
-46100,52.73487013,53.24367087
-46101,51.71351477,53.11193307
-46102,50.69228818,52.97655692
-46101,51.67118958,52.83760004
-46100,52.6502182,52.69511444
-46105,47.62937325,52.54914687
-46103,49.60865396,52.39973908
-46095,57.58805953,52.24692822
-46100,52.56758916,52.0907471
-46099,53.54724206,51.93122452
-46102,50.52701741,51.76838557
-46102,50.50691441,51.60225193
-46099,53.48693223,51.43284205
-46101,51.46707006,51.26017148
-46097,55.44732707,51.08425298
-46103,49.42770243,50.90509676
-46104,48.40819529,50.72271058
-46097,55.38880482,50.53709984
-46101,51.36953016,50.34826773
-46099,53.35037047,50.1562152
-46105,47.33132489,49.96094101
-46107,45.31239255,49.76244173
-46105,47.29357258,49.5607117
-46107,45.27486412,49.35574295
-46100,52.25626628,49.14752521
-46101,51.23777819,48.93604575
-46101,51.21939896,48.72128935
-46098,54.20112769,48.5032382
-46103,49.18296349,48.28187185
-46109,43.16490545,48.05716709
-46106,46.14695267,47.82909798
-46105,47.12910424,47.59763574
-46105,47.11135925,47.36274881
-46106,46.09371676,47.12440286
-46108,44.07617586,46.88256086
-46104,48.05873561,46.63718319
-46104,48.04139508,46.38822782
-46105,47.02415334,46.13565045
-46112,40.00700943,45.87940483
-46104,47.98996242,45.61944305
-46105,46.97301134,45.35571588
-46104,47.95615524,45.08817317
-46108,43.93939316,44.81676435
-46111,40.92272413,44.54143893
-46106,45.90614718,44.26214704
-46105,46.88966134,43.97884006
-46107,44.87326563,43.69147126
-46110,41.85695905,43.39999646
-46109,42.84074063,43.10437478
-46108,43.82460938,42.80456933
-46116,35.80856428,42.50054797
-46110,41.79260435,42.19228408
-46113,38.77672857,41.87975728
-46110,41.76093595,41.56295418
-46110,41.74522546,41.24186911
-46111,40.72959608,40.91650479
-46114,37.71404681,40.58687296
-46111,40.69857661,40.252995
-46111,40.68318445,39.91490243
-46110,41.6678693,39.57263737
-46112,39.65263012,39.22625294
-46111,40.63746588,38.87581347
-46110,41.62237552,38.52139477
-46114,37.607358,38.16308414
-46113,38.59241226,37.80098035
-46118,33.57753725,37.43519351
-46113,38.56273191,37.06584474
-46115,36.54799517,36.69306581
-46114,37.53332596,36.31699862
-46118,33.51872322,35.93779451
-46116,35.50418586,35.55561353
-46111,40.48971281,35.17062354
-46112,39.47530299,34.78299921
-46118,33.4609553,34.39292093
-46116,35.44666867,34.00057361
-46117,34.43244199,33.6061454
-46119,32.41827417,33.20982635
-46117,34.40416411,32.81180699
-46116,35.39011071,32.4122769
-46120,31.37611285,32.01142317
-46123,28.36216943,31.609429
-46120,31.34827933,31.20647212
-46123,28.33444144,30.80272335
-46121,30.32065463,30.3983452
-46120,31.30691779,29.99349042
-46124,27.29322979,29.58830076
-46122,29.2795895,29.18290571
-46125,26.26599578,28.77742137
-46123,28.25244751,28.37194947
-46124,27.23894355,27.96657649
-46126,25.22548275,27.5613729
-46123,28.21206398,27.15639262
-46125,26.19868609,26.75167254
-46126,25.18534793,26.34723229
-46124,27.17204835,25.94307415
-46127,24.15878619,25.53918313
-46125,26.14556031,25.13552723
-46123,28.13236954,24.73205787
-46124,27.11921273,24.32871049
-46130,21.1060887,23.92540535
-46128,23.0929963,23.52204842
-46131,20.07993435,23.11853249
-46132,19.06690168,22.7147384
-46131,20.05389712,22.31053636
-46129,22.0409195,21.90578746
-46126,25.02796764,21.5003452
-46134,17.01504036,21.09405718
-46131,20.00213648,20.68676681
-46127,23.98925481,20.27831507
-46132,18.97639417,19.8685423
-46133,17.96355337,19.45729006
-46131,19.95073122,19.04440289
-46130,20.93792653,18.6297301
-46134,16.92513811,18.21312749
-46132,18.91236476,17.79445901
-46133,17.89960529,17.37359835
-46134,16.88685849,16.9504304
-46134,16.87412316,16.52485259
-46136,14.86139811,16.09677615
-46134,16.84868212,15.66612714
-46131,19.83597399,15.23284738
-46138,12.82327251,14.79689522
-46138,12.81057648,14.35824606
-46133,17.79788468,13.91689279
-46139,11.7851959,13.47284595
-46138,12.77250892,13.02613376
-46138,12.75982253,12.57680195
-46135,15.74713551,12.12491338
-46140,10.73444665,11.67054753
-46138,12.72175473,11.21379975
-46138,12.70905852,10.75478042
-46140,10.6963568,10.29361392
-46138,12.68364835,9.830437427
-46138,12.67093194,9.365399657
-46141,9.658206356,8.898659453
-46145,5.64547036,8.430384282
-46140,10.63272273,7.960748672
-46145,5.619962228,7.489932583
-46144,6.607187634,7.018119745
-46147,3.594397714,6.545495974
-46147,3.581591237,6.072247496
-46148,2.56876697,5.598559287
-46149,1.555923683,5.12461345
-46144,6.543060143,4.650587658
-46149,1.530175117,4.176653653
-46146,4.517267371,3.702975852
-46147,3.504335672,3.229710042
-46151,-0.508621214,2.75700219
-46148,2.478395479,2.284987382
-46151,-0.534615485,1.813788897
-46147,3.452344661,1.343517414
-46152,-1.56072532,0.87427037
-46151,-0.573826661,0.40613147
-46147,3.413039401,-0.060829655
-46151,-0.600128368,-0.52655764
-46151,-0.613331204,-0.991011423
-46150,0.373429657,-1.454164137
-46154,-3.639847021,-1.916002863
-46153,-2.653162472,-2.376528241
-46152,-1.666517934,-2.835753954
-46152,-1.67991464,-3.293706093
-46156,-5.693353827,-3.750422404
-46152,-1.706836728,-4.205951439
-46158,-7.72036458,-4.660351611
-46156,-5.733938616,-5.113690168
-46158,-7.747560071,-5.566042106
-46153,-2.761230177,-6.017489009
-46154,-3.774950167,-6.468117861
-46161,-10.78872127,-6.918019809
-46152,-1.802544731,-7.367288916
-46154,-3.816421768,-7.816020895
-46162,-11.83035362,-8.264311846
-46160,-9.844341508,-8.712257008
-46160,-9.858386671,-9.159949523
-46161,-10.87249034,-9.60747924
-46156,-5.886653728,-10.05493155
-46156,-5.900878077,-10.50238628
-46162,-11.91516461,-10.94991662
-46165,-14.92951455,-11.39758815
-46162,-11.94392912,-11.84545788
-46162,-11.95840955,-12.29357342
-46160,-9.972957063,-12.74197217
-46165,-14.98757287,-13.19068067
-46167,-17.00225821,-13.63971393
-46162,-12.01701428,-14.08907495
-46168,-18.03184231,-14.53875426
-46163,-13.04674351,-14.98872957
-46171,-21.0617191,-15.43896552
-46160,-10.0767703,-15.88941355
-46164,-14.09189831,-16.34001176
-46165,-15.10710434,-16.79068503
-46172,-22.12238961,-17.24134506
-46174,-24.13775532,-17.6918906
-46164,-14.15320267,-18.14220776
-46168,-18.16873288,-18.59217042
-46169,-19.18434714,-19.04164066
-46172,-22.20004666,-19.49046934
-46169,-19.21583263,-19.93849675
-46175,-25.23170624,-20.38555335
-46169,-19.24766871,-20.83146054
-46172,-22.26372121,-21.27603154
-46164,-14.27986493,-21.71907237
-46164,-14.29610108,-22.1603828
-46176,-26.31243082,-22.59975748
-46175,-25.32885536,-23.03698701
-46171,-21.34537587,-23.47185916
-46174,-24.36199353,-23.90416004
-46174,-24.37870953,-24.33367541
-46175,-25.39552504,-24.76019189
-46172,-22.41244123,-25.18349831
-46177,-27.42945928,-25.60338701
-46176,-26.44658035,-26.01965515
-46180,-30.46380562,-26.43210605
-46178,-28.48113625,-26.84055044
-46178,-28.4985734,-27.24480782
-46177,-27.51611823,-27.64470763
-46175,-25.53377189,-28.04009051
-46179,-29.55153555,-28.43080945
-46173,-23.56941035,-28.81673089
-46177,-27.58739744,-29.1977358
-46176,-26.60549797,-29.57372057
-46181,-31.62371308,-29.94459797
-46179,-29.64204391,-30.31029791
-46178,-28.6604916,-30.67076815
-46184,-34.67905729,-31.02597491
-46182,-32.69774212,-31.37590333
-46186,-36.7165472,-31.72055786
-46176,-26.73547366,-32.05996253
-46182,-32.75452264,-32.39416106
-46188,-38.77369524,-32.72321689
-46186,-36.79299259,-33.04721303
-46182,-32.8124158,-33.36625184
-46181,-31.83196598,-33.68045468
-46182,-32.85164424,-33.98996133
-46183,-33.87145168,-34.29492944
-46182,-32.89138941,-34.59553376
-46181,-31.91145851,-34.89196526
-46189,-39.93166008,-35.18443017
-46186,-36.95199523,-35.4731489
-46182,-32.97246502,-35.75835485
-46185,-35.99307055,-36.04029312
-46181,-32.01381291,-36.3192192
-46189,-40.03469315,-36.59539748
-46184,-35.05571237,-36.86909978
-46188,-39.07687163,-37.14060378
-46183,-34.098172,-37.41019142
-46191,-42.11961453,-37.67814728
-46185,-36.1412003,-37.94475687
-46189,-40.16293036,-38.21030498
-46191,-42.18480577,-38.475074
-46183,-34.20682756,-38.73934224
-46185,-36.22899678,-39.00338226
-46190,-41.25131449,-39.26745926
-46184,-35.27378171,-39.5318295
-46191,-42.29639948,-39.79673876
-46190,-41.31916883,-40.06242087
-46188,-39.34209079,-40.32909632
-46192,-43.36516638,-40.59697094
-46188,-39.38839661,-40.86623469
-46190,-41.41178252,-41.13706054
-46189,-40.4353251,-41.40960344
-46191,-42.45902536,-41.68399944
-46192,-43.48288431,-41.96036493
-46192,-43.50690295,-42.238796
-46192,-43.53108227,-42.51936788
-46191,-42.55542326,-42.80213468
-46191,-42.57992691,-43.08712905
-46193,-44.60459421,-43.37436221
-46195,-46.62942612,-43.66382393
-46183,-34.65442364,-43.95548284
-46194,-45.67958771,-44.24928673
-46187,-38.70491932,-44.54516309
-46199,-50.73041943,-44.84301977
-46194,-45.75608899,-45.14274581
-46193,-44.78192896,-45.4442123
-46195,-46.80794028,-45.74727354
-46194,-45.83412391,-46.05176814
-46193,-44.86048078,-46.35752039
-46193,-44.88701183,-46.66434164
-46193,-44.91371799,-46.97203177
-46197,-48.94060019,-47.28038084
-46193,-44.96765935,-47.5891707
-46198,-49.99489639,-47.89817672
-46196,-48.02231222,-48.20716956
-46198,-50.04990777,-48.51591697
-46197,-49.07768392,-48.8241856
-46196,-48.10564158,-49.13174282
-46198,-50.13378164,-49.43835857
-46200,-52.162105,-49.74380711
-46197,-49.19061255,-50.04786878
-46196,-48.21930515,-50.35033175
-46199,-51.2481837,-50.65099362
-46202,-54.27724905,-50.94966301
-46199,-51.30650209,-51.24616104
-46197,-49.33594366,-51.54032268
-46199,-51.36557463,-51.8319981
-46198,-50.39539585,-52.12105372
-46199,-51.42540817,-52.40737332
-46201,-53.45561242,-52.69085889
-46199,-51.48600944,-52.97143141
-46204,-56.51660007,-53.2490314
-46208,-60.54738513,-53.52361944
-46203,-55.57836545,-53.79517641
-46199,-51.60954184,-54.0637037
-46202,-54.64091511,-54.32922315
-46199,-51.67248607,-54.59177691
-46205,-57.70425552,-54.85142716
-46204,-56.73622425,-55.1082556
-46202,-54.76839305,-55.36236291
-46202,-54.80076271,-55.61386799
-46203,-55.833334,-55.8629071
-46199,-51.8661077,-56.10963291
-46203,-55.89908459,-56.35421338
-46202,-54.93226541,-56.59683056
-46205,-57.96565094,-56.83767937
-46196,-48.99924192,-57.07696614
-46207,-60.03303909,-57.31490727
-46207,-60.06704321,-57.55172767
-46205,-58.10125501,-57.78765924
-46208,-61.13567523,-58.02293931
-46205,-58.17030457,-58.25780902
-46206,-59.20514378,-58.49251171
-46206,-59.24019355,-58.72729134
-46204,-57.2754546,-58.96239084
-46210,-63.31092763,-59.19805061
-46206,-59.34661334,-59.43450694
-46207,-60.38251241,-59.67199054
-46207,-60.41862554,-59.91072511
-46208,-61.45495341,-60.15092603
-46205,-58.49149668,-60.39279902
-46204,-57.52825602,-60.63653903
-46205,-58.56523211,-60.88232911
-46205,-58.60242558,-61.13033946
-46210,-63.6398371,-61.38072659
-46210,-63.67746731,-61.63363255
-46213,-66.71531685,-61.88918434
-46206,-59.75338635,-62.14749343
-46206,-59.79167644,-62.4086554
-46209,-62.83018774,-62.67274977
-46208,-61.86892086,-62.93983985
-46208,-61.90787642,-63.20997289
-46210,-63.94705502,-63.4831802
-46214,-67.98645725,-63.75947749
-46211,-65.0260837,-64.03886535
-46205,-59.06593496,-64.32132977
-46207,-61.10601161,-64.60684285
-46210,-64.14631423,-64.89536359
-46210,-64.18684337,-65.18683873
-46212,-66.22759959,-65.48120377
-46210,-64.26858346,-65.77838398
-46214,-68.30979552,-66.07829554
-46217,-71.35123632,-66.38084667
-46214,-68.39290637,-66.68593885
-46209,-63.43480623,-66.99346806
-46213,-67.4769364,-67.30332603
-46213,-67.5192974,-67.61540144
-46212,-66.56188974,-67.92958124
-46214,-68.60471393,-68.24575179
-46216,-70.64777046,-68.56380006
-46215,-69.69105982,-68.88361478
-46214,-68.73458249,-69.20508748
-46214,-68.77833895,-69.5281135
-46212,-66.82232967,-69.8525929
-46217,-71.86655511,-70.17843126
-46214,-68.91101573,-70.50554048
-46217,-71.95571198,-70.8338393
-46216,-71.00064429,-71.1632539
-46221,-76.04581311,-71.49371822
-46215,-70.09121887,-71.82517428
-46215,-70.13686198,-72.15757232
-46217,-72.18274286,-72.49087082
-46221,-76.22886192,-72.82503641
-46220,-75.27521957,-73.16004367
-46217,-72.32181619,-73.49587478
-46217,-72.36865216,-73.83251912
-46221,-76.41572789,-74.1699727
-46223,-78.46304372,-74.50823751
-46219,-74.51060003,-74.84732085
-46216,-71.55839718,-75.18723445
-46225,-80.60643552,-75.52799367
-46221,-76.65471539,-75.86961653
-46220,-75.70323712,-76.21212275
-46220,-75.75200106,-76.55553274
-46219,-74.8010075,-76.8998666
-46224,-79.85025678,-77.2451431
-46223,-78.8997492,-77.59137863
-46219,-74.94948505,-77.93858622
-46222,-77.99946463,-78.28677463
-46215,-71.04968822,-78.63594734
-46225,-81.10015609,-78.9861018
-46222,-78.15086853,-79.33722855
-46220,-76.20182579,-79.68931059
-46227,-83.25302812,-80.04232269
-46224,-80.30447577,-80.39623091
-46227,-83.35616899,-80.75099215
-46223,-79.40810799,-81.10655382
-46222,-78.46029301,-81.46285363
-46221,-77.51272426,-81.81981949
-46227,-83.56540195,-82.1773695
-46228,-84.61832628,-82.53541207
-46225,-81.67149744,-82.89384615
-46228,-84.72491561,-83.25256154
-46223,-79.77858098,-83.61143935
-46228,-84.83249371,-83.9703525
-46228,-84.88665396,-84.32916638
-46230,-86.94106188,-84.68773952
-46231,-87.99571762,-85.0459244
-46229,-86.05062131,-85.40356828
-46232,-89.10577308,-85.76051417
-46227,-84.16117305,-86.11660175
-46228,-85.21682133,-86.47166846
-46232,-89.27271803,-86.82555049
-46232,-89.32886323,-87.17808393
-46229,-86.38525702,-87.52910587
-46228,-85.44189947,-87.87845553
-46229,-86.49879067,-88.22597539
-46229,-86.55593066,-88.57151235
-46229,-86.6133195,-88.91491884
-46235,-92.67095723,-89.25605395
-46235,-92.72884388,-89.59478453
-46233,-90.78697949,-89.93098625
-46235,-92.84536407,-90.26454465
-46233,-90.90399763,-90.59535611
-46235,-92.96288017,-90.92332888
-46231,-89.02201167,-91.2483839
-46235,-93.08139213,-91.57045577
-46232,-90.1410215,-91.88949347
-46234,-92.20089977,-92.20546116
-46235,-93.26102688,-92.5183389
-46230,-88.32140277,-92.82812323
-46236,-94.3820274,-93.13482779
-46235,-93.44290068,-93.4384838
-46236,-94.50402253,-93.73914048
-46237,-95.56539287,-94.03686547
-46231,-89.6270116,-94.33174506
-46234,-92.68887861,-94.62388441
-46237,-95.75099378,-94.91340774
-46233,-91.81335699,-95.20045829
-46234,-92.8759681,-95.48519837
-46235,-93.93882698,-95.76780919
-46235,-94.00193346,-96.04849067
-46246,-105.0652874,-96.32746114
-46238,-97.1288886,-96.60495693
-46241,-100.1927369,-96.88123189
-46236,-95.25683211,-97.15655678
-46234,-93.32117403,-97.43121862
-46240,-99.38576244,-97.70551984
-46244,-103.4505971,-97.97977743
-46239,-98.51567788,-98.25432193
-46239,-98.58100444,-98.52949633
-46241,-100.6465766,-98.80565487
-46240,-99.71239401,-99.08316175
-46237,-96.77845649,-99.36238973
-46241,-100.8447637,-99.64371866
-46237,-96.91131547,-99.9275339
-46241,-100.9781114,-100.2142247
-46238,-98.0451512,-100.5041822
-46239,-99.11243458,-100.7977983
-46240,-100.1799612,-101.0954629
-46244,-104.2477307,-101.3975627
-46244,-104.3157428,-101.7044787
-46244,-104.3839972,-102.0165846
-46240,-100.4524933,-102.3342443
-46243,-103.521231,-102.6578105
-46240,-100.5902097,-102.9876217
-46238,-98.65942921,-103.324001
-46246,-106.728889,-103.6672534
-46242,-102.7985886,-104.0176639
-46241,-101.8685277,-104.3754958
-46246,-106.9387059,-104.7409883
-46243,-104.0091226,-105.1143547
-46244,-105.0797775,-105.4957808
-46251,-112.1506701,-105.8854228
-46247,-108.2217999,-106.2834058
-46243,-104.2931663,-106.6898223
-46246,-107.3647691,-107.1047306
-46243,-104.4366075,-107.5281538
-46248,-109.5086811,-107.9600784
-46249,-110.5809895,-108.4004534
-46248,-109.653532,-108.8491897
-46244,-105.726308,-109.3061592
-46248,-109.7993172,-109.7711946
-46251,-112.8725588,-110.2440892
-46250,-111.9460323,-110.7245969
-46250,-112.0197371,-111.2124325
-46250,-112.0936726,-111.7072722
-46250,-112.1678383,-112.2087543
-46251,-113.2422334,-112.7164803
-46248,-110.3168573,-113.2300164
-46250,-112.3917095,-113.7488944
-46255,-117.4667892,-114.2726144
-46252,-114.5420959,-114.800646
-46251,-113.6176287,-115.3324314
-46251,-113.6933871,-115.8673873
-46255,-117.7693703,-116.4049084
-46255,-117.8455776,-116.9443701
-46255,-117.9220083,-117.485132
-46253,-115.9986617,-118.0265411
-46261,-124.075537,-118.5679364
-46256,-119.1526335,-119.1086518
-46256,-119.2299504,-119.6480211
-46256,-119.3074869,-120.1853817
-46258,-121.3852422,-120.7200793
-46255,-118.4632156,-121.2514722
-46254,-117.5414063,-121.778936
-46254,-117.6198133,-122.3018682
-46257,-120.6984359,-122.8196927
-46258,-121.7772732,-123.3318644
-46258,-121.8563244,-123.8378734
-46264,-127.9355886,-124.3372502
-46261,-125.0150648,-124.8295689
-46259,-123.0947523,-125.314452
-46264,-128.1746501,-125.7915741
-46263,-127.2547573,-126.260665
-46260,-124.335073,-126.7215135
-46261,-125.4155962,-127.1739701
-46262,-126.4963259,-127.6179496
-46261,-125.5772612,-128.0534329
-46265,-129.6584012,-128.4804691
-46264,-128.7397447,-128.8991763
-46270,-134.8212909,-129.3097426
-46267,-131.9030387,-129.7124259
-46264,-128.984987,-130.1075534
-46265,-130.0671349,-130.4955207
-46266,-131.1494813,-130.8767905
-46272,-137.232025,-131.2518895
-46268,-133.3147651,-131.6214063
-46269,-134.3977004,-131.9859874
-46269,-134.4808299,-132.3463333
-46268,-133.5641523,-132.7031939
-46268,-133.6476666,-133.0573629
-46267,-132.7313717,-133.409672
-46270,-135.8152663,-133.7609846
-46269,-134.8993493,-134.1121887
-46268,-133.9836196,-134.4641894
-46267,-133.0680758,-134.8179012
-46267,-133.1527168,-135.1742395
-46271,-137.2375415,-135.5341122
-46272,-138.3225485,-135.8984104
-46265,-131.4077365,-136.2679995
-46272,-138.4931044,-136.6437096
-46273,-139.5786509,-137.0263262
-46273,-139.6643746,-137.4165801
-46269,-135.7502743,-137.8151385
-46271,-137.8363487,-138.2225948
-46271,-137.9225963,-138.6394596
-46273,-140.009016,-139.0661513
-46275,-142.0956062,-139.5029871
-46268,-135.1823657,-139.9501745
-46273,-140.2692931,-140.4078029
-46273,-140.356387,-140.8758361
-46277,-144.4436459,-141.3541044
-46268,-135.5310684,-141.8422987
-46272,-139.6186532,-142.3399638
-46274,-141.7063987,-142.8464935
-46278,-145.7943034,-143.3611253
-46278,-145.882366,-143.8829374
-46280,-147.9705849,-144.4108448
-46279,-147.0589586,-144.9435977
-46272,-140.1474856,-145.4797798
-46279,-147.2361643,-146.0178081
-46275,-143.3249933,-146.5559333
-46277,-145.4139709,-147.0922414
-46278,-146.5030955,-147.6246559
-46280,-148.5923656,-148.150941
-46278,-146.6817796,-148.6687066
-46280,-148.7713359,-149.1754127
-46276,-144.8610327,-149.668376
-46280,-148.9508685,-150.144777
-46280,-149.0408417,-150.6016677
-46281,-150.1309504,-151.0359805
-46283,-152.2211931,-151.4445376
-46279,-148.311568,-151.8240619
-46282,-151.4020735,-152.1711873
-46286,-155.4927077,-152.4824709
-46286,-155.5834689,-152.7544053
-46282,-151.6743554,-152.9834313
-46285,-154.7653654,-153.1659517
-46288,-157.8564971,-153.2983446
-46281,-150.9477486,-153.376978
-46288,-158.0391182,-153.3982239
-46287,-157.1306041,-153.3584735
-46289,-159.2222043,-153.2541518
-46281,-151.313917,-153.0817325
-46286,-156.4057402,-152.8377531
-46283,-153.4976722,-152.51883
-46281,-151.589711,-152.1216729
-46281,-151.6818547,-151.6430999
-46281,-151.7741013,-151.0800517
-46277,-147.8664488,-150.4296053
-46274,-144.9588954,-149.6889883
-46278,-149.0514389,-148.8555915
-46276,-147.1440774,-147.9269821
-46275,-146.2368089,-146.9009153
-46276,-147.3296314,-145.7753462
-46270,-141.4225427,-144.5484404
-46266,-137.5155409,-143.2185839
-46265,-136.6086239,-141.7843925
-46266,-137.7017895,-140.2447202
-46263,-134.7950358,-138.5986664
-46265,-136.8883605,-136.845583
-46267,-138.9817616,-134.9850794
-46267,-139.0752368,-133.0170275
-46260,-132.1687842,-130.9415651
-46257,-129.2624014,-128.7590984
-46256,-128.3560863,-126.4703035
-46253,-125.4498367,-124.0761265
-46251,-123.5436505,-121.5777831
-46246,-118.6375254,-118.9767566
-46243,-115.7314591,-116.2747947
-46240,-112.8254494,-113.4739056
-46239,-111.9194942,-110.576353
-46231,-104.013591,-107.5846498
-46229,-102.1077378,-104.5015505
-46229,-102.201932,-101.3300435
-46234,-107.2961716,-98.07334144
-46221,-94.39045408,-94.7348713
-46216,-89.48477725,-91.31826317
-46218,-91.57913876,-87.82733844
-46212,-85.67353627,-84.26609716
-46209,-82.76796745,-80.63870463
-46208,-81.86242995,-76.9494774
-46203,-76.95692141,-73.20286867
-46191,-65.05143948,-69.40345321
-46191,-65.14598177,-65.55591183
-46184,-58.24054592,-61.66501549
-46185,-59.33512953,-57.73560921
-46176,-50.42973023,-53.77259574
-46175,-49.52434561,-49.78091915
-46173,-47.61897328,-45.76554841
-46168,-42.71361084,-41.73146106
-46164,-38.80825587,-37.68362702
-46160,-34.90290596,-33.62699263
-46151,-25.99755869,-29.56646504
-46150,-25.09221165,-25.50689696
-46145,-20.18686241,-21.45307193
-46138,-13.28150855,-17.40969009
-46141,-16.37614765,-13.3813546
-46134,-9.470777266,-9.37255868
-46128,-3.565394979,-5.387673471
-46123,1.340001644,-1.43093659
-46123,1.245415031,2.493558426
-46111,13.15084761,6.381871823
-46114,10.05630182,10.23022642
-46106,17.96178009,14.03501546
-46108,15.86728483,17.79280951
-46104,19.77281848,21.5003624
-46096,27.67838347,25.15461612
-46095,28.58398221,28.75270482
-46093,30.48961712,32.29195777
-46087,36.39529062,35.76990137
-46085,38.30100512,39.18426021
-46081,42.20676304,42.53295718
-46078,45.11256678,45.81411272
-46069,54.01841874,49.02604321
-46066,56.92432131,52.16725843
-46071,51.8302769,55.23645839
-46062,60.73628788,58.23252933
-46062,60.64235664,61.15453903
-46059,63.54848556,64.00173158
-46055,67.454677,66.77352146
-46055,67.36093332,69.46948723
-46049,73.26725689,72.08936469
-46051,71.17365005,74.6330397
-46051,71.08011514,77.10054066
-46038,83.98665451,79.49203073
-46037,84.89327047,81.80779992
-46040,81.79996536,84.04825696
-46039,82.70674148,86.21392115
-46032,89.61360113,88.30541426
-46031,90.52054661,90.32345234
-46027,94.42758022,92.2688378
-46028,93.33470422,94.14245153
-46030,91.24192088,95.94524528
-46024,97.14923247,97.67823425
-46025,96.05664124,99.34249006
-46022,98.96414943,100.9391339
-46021,99.87175926,102.4693303
-46016,104.779473,103.9342808
-46015,105.6872928,105.3352187
-46011,109.5952208,106.6734036
-46013,107.5032594,107.9501167
-46012,108.4114106,109.1666569
-46009,111.3196767,110.3243362
-46010,110.2280597,111.4244769
-46008,112.1365619,112.4684084
-46006,114.0451853,113.4574647
-46005,114.9539322,114.3929824
-46004,115.8628045,115.2762986
-46000,119.7718045,116.1087502
-46007,112.6809342,116.8916722
-46004,115.5901957,117.6263974
-45999,120.4995911,118.314256
-46004,115.4091224,118.9565754
-46003,116.3187917,119.5546802
-45999,120.228601,120.1098928
-45999,120.1385523,120.6235332
-45997,122.0486477,121.0969202
-46000,118.9588891,121.5313715
-45994,124.8692785,121.9282045
-45999,119.779818,122.2887369
-45999,119.6905095,122.6142872
-45999,119.6013549,122.9061752
-45990,128.5123561,123.1657222
-45994,124.4235152,123.3942516
-45992,126.334834,123.5930885
-45991,127.2463144,123.7635595
-45990,128.1579584,123.9069927
-45995,123.0697677,124.0247168
-45992,125.9817443,124.1180601
-45990,127.8938901,124.1883496
-45991,126.8062068,124.2369091
-45990,127.7186963,124.265058
-45991,126.6313604,124.2741092
-45993,124.544201,124.2653665
-45996,121.4572198,124.2401224
-45992,125.3704185,124.1996554
-45991,126.2837991,124.145227
-45995,122.1973632,124.0780786
-45989,128.1111125,123.9994279
-45995,122.0250488,123.910466
-45997,119.9391739,123.8123536
-45993,123.8534894,123.7062174
-45992,124.767997,123.5931466
-45992,124.6826984,123.4741893
-45992,124.5975954,123.3503489
-45994,122.5126894,123.2225807
-45993,123.4279823,123.0917886
-45994,122.3434756,122.9588219
-45993,123.2591709,122.8244725
-46001,115.1750699,122.689472
-45992,124.0911742,122.5544895
-46000,116.0074853,122.4201294
-45990,125.9240048,122.2869294
-45992,123.8407343,122.1553594
-45998,117.7576754,122.0258205
-45996,119.6748296,121.8986439
-45994,121.5921984,121.7740911
-45998,117.5097833,121.6523539
-45996,119.4275858,121.5335552
-45993,122.3456075,121.4177496
-45994,121.2638497,121.3049253
-45999,116.1823141,121.1950059
-45995,120.101002,121.0878524
-45994,121.0199149,120.983266
-45994,120.9390542,120.8809913
-45995,119.8584213,120.7807194
-45995,119.7780177,120.6820919
-45992,122.6978447,120.5847042
-45996,118.6179038,120.4881107
-45989,125.5381963,120.3918283
-45995,119.4587236,120.2953416
-45996,118.379487,120.1981075
-45994,120.3004879,120.0995602
-45990,124.2217276,119.9991157
-45990,124.1432074,119.8961776
-45992,122.0649286,119.7901412
-45995,118.9868925,119.6803992
-45996,117.9091004,119.566346
-45991,122.8315536,119.4473828
-45995,118.7542533,119.3229221
-45992,121.6772008,119.1923921
-45992,121.6003972,119.0552411
-45991,122.5238439,118.9109412
-45998,115.447542,118.7589925
-45994,119.3714927,118.5989261
-45998,115.2956973,118.4303076
-45994,119.2201568,118.25274
-45992,121.1448725,118.0658658
-45994,119.0698454,117.86937
-45997,115.9950768,117.6629813
-45995,117.9205678,117.4464739
-45996,116.8463195,117.219669
-45998,114.7723329,116.982435
-45994,118.6986092,116.7346888
-45999,113.6251495,116.4763952
-45999,113.5519548,116.2075675
-45993,119.4790262,115.9282666
-45998,114.4063648,115.6386002
-45998,114.3339715,115.3387221
-45998,114.2618475,115.0288307
-45995,117.1899936,114.709167
-45998,114.118411,114.3800135
-45999,113.0471006,114.0416916
-46003,108.9760634,113.6945594
-45999,112.9053003,113.3390093
-46000,111.8348124,112.9754652
-45998,113.7646005,112.6043799
-45996,115.6946657,112.2262318
-46003,108.6250087,111.8415224
-45999,112.5556306,111.4507723
-46004,107.4865323,111.0545187
-45996,115.4177146,110.6533116
-46006,105.3491784,110.2477109
-46002,109.2809246,109.8382824
-45996,115.2129541,109.425595
-45999,112.1452677,109.0102172
-46004,107.0778662,108.5927134
-46002,109.0107504,108.1736411
-46002,108.9439213,107.7535476
-46009,101.8773795,107.3329665
-46004,106.8111259,106.9124151
-46001,109.7451613,106.4923914
-46010,100.6794865,106.0733712
-46000,110.6141021,105.6558055
-46006,104.549009,105.240118
-46003,107.4842079,104.826703
-46010,100.4196996,104.4159228
-46009,101.3554847,104.0081064
-46006,104.2915639,103.603547
-46010,100.2279381,103.2025012
-46007,103.1646078,102.8051872
-46002,108.1015738,102.4117838
-46006,104.0388367,102.0224296
-46007,102.9763972,101.6372224
-46010,99.91425588,101.2562186
-46008,101.8524135,100.8794333
-46006,103.7908706,100.5068402
-46007,102.7296278,100.1383719
-46011,98.66868578,99.77392064
-46009,100.6080451,99.41333887
-46016,93.54770635,99.0564405
-46012,97.48767012,98.70300203
-46011,98.42793698,98.3527641
-46016,93.36850749,98.00543316
-46014,95.30938221,97.66068341
-46013,96.25056169,97.31815895
-46013,96.19204644,96.97747602
-46009,100.133837,96.63822554
-46012,97.07593391,96.29997572
-46014,95.01833764,95.96227488
-46013,95.9610487,95.62465433
-46010,98.90406758,95.28663144
-46014,94.84739475,94.94771276
-46014,94.79103069,94.60739721
-46015,93.73497585,94.26517934
-46020,88.67923068,93.92055264
-46014,94.62379563,93.57301283
-46018,90.56867111,93.22206115
-46016,92.51385757,92.86720764
-46012,96.4593554,92.50797438
-46017,91.40516502,92.14389859
-46014,94.35128682,91.77453571
-46016,92.29772119,91.39946234
-46018,90.2444685,91.01827901
-46019,89.19152911,90.63061289
-46019,89.1389034,90.2361202
-46023,85.0865917,89.83448856
-46017,91.03459436,89.42543904
-46014,93.98291172,89.00872802
-46019,88.93154409,88.58414886
-46018,89.88049179,88.15153325
-46017,90.82975513,87.71075236
-46020,87.77933441,87.26171775
-46025,82.72922991,86.8043819
-46022,85.6794419,86.33873864
-46021,86.62997068,85.86482314
-46021,86.58081649,85.38271174
-46024,83.53197959,84.89252147
-46020,87.48346023,84.39440929
-46022,85.43525864,83.8885711
-46025,82.38737506,83.37524046
-46028,79.3398097,82.85468713
-46029,78.29256278,82.3272153
-46018,89.2456345,81.79316168
-46031,76.19902506,81.25289333
-46026,81.15273465,80.70680534
-46032,75.10676345,80.15531837
-46025,82.06111164,79.59887593
-46025,82.01577937,79.03794172
-46029,77.9707668,78.47299669
-46028,78.9260741,77.90453612
-46023,83.88170138,77.33306665
-46028,78.8376488,76.75910321
-46031,75.79391648,76.18316602
-46032,74.75050452,75.60577758
-46029,77.70741306,75.02745965
-46036,70.66464218,74.44873044
-46029,77.62219199,73.87010172
-46037,69.58006257,73.29207621
-46033,73.538254,72.71514498
-46036,70.49676636,72.13978509
-46033,73.45559971,71.56645739
-46034,72.41475412,70.99560454
-46039,67.37422964,70.4276492
-46041,65.33402631,69.86299249
-46035,71.29414417,69.30201269
-46042,64.25458326,68.74506421
-46038,68.21534359,68.19247674
-46038,68.1764252,67.6445548
-46042,64.13782808,67.10157742
-46040,66.09955225,66.56379821
-46040,66.06159771,66.03144556
-46035,71.02396445,65.50472321
-46040,65.98665246,64.983811
-46046,59.94966171,64.46886588
-46043,62.91299217,63.96002314
-46044,61.87664383,63.45739778
-46043,62.84061663,62.96108616
-46044,61.80491053,62.47116773
-46049,56.76952547,61.98770694
-46045,60.73446141,61.51075521
-46049,56.69971828,61.04035304
-46040,65.66529601,60.57653216
-46047,58.63119452,60.11931766
-46048,57.59741374,59.66873021
-46044,61.56395357,59.22478816
-46047,58.53081392,58.78750965
-46045,60.4979947,58.35691462
-46047,58.46549579,57.93302667
-46047,58.4333171,57.51587487
-46044,61.4014585,57.10549532
-46046,59.36991987,56.70193264
-46049,56.33870108,56.30524116
-46048,57.307802,55.91548598
-46046,59.27722249,55.53274376
-46050,55.2469624,55.15710335
-46048,57.21702158,54.78866608
-46045,60.18739988,54.42754591
-46055,50.15809714,54.07386929
-46055,50.12911318,53.72777476
-46050,55.10044783,53.38941244
-46048,57.07210092,53.05894314
-46053,52.04407226,52.73653736
-46052,53.01636166,52.42237412
-46053,51.98896893,52.11663954
-46052,52.96189386,51.81952529
-46053,51.93513626,51.53122698
-46055,49.90869592,51.25194231
-46053,51.88257261,50.98186923
-46049,55.85676612,50.72120403
-46058,46.83127622,50.47013933
-46056,48.80610269,50.22886215
-46058,46.78124529,49.99755191
-46056,48.75670377,49.77637853
-46059,45.7324779,49.56550054
-46056,48.70856742,49.36506335
-46060,44.68497208,49.17519754
-46055,49.66169162,48.99601732
-46054,50.63872578,48.82761913
-46054,50.61607429,48.67008043
-46062,42.59373687,48.52345856
-46057,47.57171326,48.3877899
-46059,45.55000316,48.26308912
-46055,49.52860628,48.1493487
-46059,45.50752235,48.04653857
-46055,49.48675105,47.95460603
-46059,45.46629209,47.87347578
-46059,45.44614517,47.80305017
-46057,47.42630997,47.74320965
-46059,45.40678617,47.69381338
-46055,49.38757347,47.65469994
-46049,55.36867152,47.62568832
-46054,50.35008002,47.60657886
-46057,47.33179861,47.59715451
-46055,49.31382696,47.597182
-46056,48.29616474,47.60641324
-46057,47.27881157,47.62458671
-46056,48.26176713,47.65142891
-46060,44.24503103,47.68665586
-46054,50.22860293,47.72997461
-46058,46.21248246,47.78108472
-46058,46.19666923,47.83967979
-46054,50.18116289,47.90544886
-46056,48.16596303,47.97807787
-46053,51.15106928,48.05725094
-46051,53.13648124,48.14265171
-46056,48.12219852,48.23396446
-46059,45.10822072,48.33087527
-46057,47.09454743,48.43307295
-46059,45.08117824,48.54024997
-46056,48.06811273,48.65210321
-46055,49.05535048,48.76833463
-46055,49.04289107,48.88865179
-46052,52.03073407,49.01276828
-46053,51.01887904,49.14040401
-46056,48.00732554,49.27128541
-46054,49.99607313,49.4051455
-46055,48.98512137,49.54172386
-46054,49.97446978,49.68076649
-46056,47.96411793,49.8220256
-46051,52.95406533,49.96525928
-46054,49.94431153,50.11023117
-46056,47.93485604,50.25670998
-46054,49.92569839,50.40446898
-46055,48.9168381,50.55328554
-46053,50.90827467,50.70294049
-46048,55.90000761,50.85321758
-46051,52.89203643,51.00390294
-46050,53.88436061,51.15478443
-46055,48.87697966,51.30565118
-46055,48.86989304,51.45629302
-46052,51.86310026,51.60650006
-46051,52.85660077,51.75606226
-46046,57.85039406,51.9047691
-46050,53.84447958,52.05240932
-46052,51.83885679,52.19877072
-46055,48.83352515,52.34364013
-46056,47.82848412,52.48680332
-46055,48.82373312,52.62804521
-46055,48.81927161,52.76715
-46052,51.81509901,52.90390149
-46051,52.81121476,53.0380835
-46054,49.80761828,53.16948035
-46051,52.80430899,53.29787747
-46053,50.80128631,53.42306201
-46054,49.79854964,53.54482363
-46045,58.79609839,53.6629553
-46048,55.79393195,53.77725412
-46051,52.79204973,53.88752223
-46051,52.7904511,53.99356775
-46054,49.78913546,54.09520565
-46048,55.78810218,54.19225876
-46048,55.78735063,54.2845586
-46049,54.78688018,54.3719463
-46046,57.78669019,54.45427342
-46044,59.78678002,54.53140272
-46047,56.78714901,54.6032089
-46050,53.78779652,54.66957915
-46047,56.78872188,54.73041373
-46041,62.78992442,54.78562642
-46050,53.79140348,54.83514476
-46050,53.79315837,54.87891033
-46051,52.79518841,54.91687882
-46042,61.79749292,54.94902
-46049,54.8000712,54.97531758
-46053,50.80292254,54.99576894
-46051,52.80604625,55.01038481
-46048,55.80944162,55.01918869
-46047,56.81310792,55.02221639
-46051,52.81704443,55.01951527
-46051,52.82125044,55.0111435
-46051,52.8257252,54.99716925
-46053,50.83046799,54.97766976
-46045,58.83547805,54.95273041
-46048,55.84075465,54.92244371
-46048,55.84629702,54.88690828
-46051,52.85210441,54.84622779
-46045,58.85817605,54.80050994
-46051,52.86451118,54.74986539
-46050,53.87110902,54.69440671
-46049,54.87796879,54.63424743
-46048,55.8850897,54.56950105
-46052,51.89247096,54.50028011
-46049,54.90011178,54.42669537
-46050,53.90801135,54.34885498
-46046,57.91616887,54.26686377
-46052,51.92458352,54.18082265
-46049,54.93325448,54.090828
-46055,48.94218093,53.99697121
-46054,49.95136205,53.89933832
-46047,56.960797,53.79800975
-46052,51.97048493,53.69306004
-46046,57.98042501,53.5845578
-46055,48.99061639,53.47256566
-46054,50.0010582,53.35714036
-46055,49.0117496,53.23833288
-46050,54.02268971,53.11618866
-46050,54.03387767,52.9907479
-46048,56.0453126,52.86204591
-46050,54.05699362,52.73011351
-46050,54.06891984,52.5949775
-46045,59.08109037,52.45666111
-46053,51.09350432,52.31518459
-46055,49.10616078,52.17056571
-46051,53.11905885,52.02282034
-46048,56.13219761,51.87196299
-46050,54.14557615,51.71800743
-46053,51.15919354,51.5609672
-46052,52.17304885,51.40085619
-46056,48.18714115,51.23768916
-46054,50.2014695,51.07148221
-46057,47.21603296,50.90225332
-46054,50.23083058,50.73002272
-46048,56.2458614,50.55481331
-46058,46.26112447,50.37665104
-46057,47.27661883,50.1955652
-46058,46.2923435,50.0115887
-46054,50.30829751,49.82475828
-46054,50.32447989,49.6351147
-46048,56.34088965,49.44270289
-46050,54.3575258,49.24757196
-46057,47.37438735,49.04977531
-46055,49.39147331,48.8493706
-46054,50.40878267,48.64641967
-46055,49.42631441,48.44098848
-46059,45.44406754,48.23314697
-46054,50.46204103,48.02296889
-46058,46.48023385,47.81053161
-46062,42.49864499,47.59591588
-46056,48.5172734,47.3792056
-46062,42.53611806,47.16048753
-46060,44.55517792,46.93985096
-46058,46.57445194,46.71738747
-46057,47.59393906,46.49319054
-46055,49.61363824,46.2673552
-46061,43.63354841,46.03997774
-46059,45.6536685,45.81115528
-46059,45.67399746,45.58098544
-46058,46.69453421,45.34956594
-46055,49.71527767,45.11699423
-46062,42.73622676,44.88336708
-46061,43.75738039,44.64878022
-46061,43.77873747,44.41332788
-46062,42.80029691,44.17710248
-46066,38.82205761,43.94019413
-46065,39.84401845,43.70269026
-46059,45.86617835,43.46467521
-46061,43.88853617,43.22622979
-46057,47.91109082,42.98743087
-46060,44.93384115,42.74835098
-46057,47.95678606,42.5090578
-46071,33.97992441,42.26961385
-46062,43.00325507,42.03007597
-46060,45.02677689,41.79049496
-46062,43.05048874,41.55091511
-46065,40.07438947,41.31137387
-46064,41.09847793,41.07190141
-46063,42.12275296,40.83252024
-46064,41.14721341,40.5932449
-46059,46.1718581,40.35408161
-46062,43.19668588,40.11502799
-46068,37.22169557,39.8760728
-46071,34.246886,39.63719573
-46069,36.27225599,39.39836724
-46063,42.29780434,39.15954847
-46067,38.32352988,38.92069115
-46066,39.34943142,38.68173765
-46063,42.37550776,38.44262105
-46069,36.4017577,38.20326528
-46066,39.42818004,37.96358538
-46071,34.45477357,37.7234878
-46070,35.48153708,37.48287076
-46070,35.50846935,37.24162475
-46068,37.53556918,36.99963303
-46070,35.56283534,36.75677232
-46075,30.5902666,36.51291343
-46070,35.61786173,36.26792209
-46069,36.64561952,36.02165973
-46070,35.67353871,35.77398442
-46073,32.70161807,35.52475178
-46072,33.72985636,35.27381603
-46068,37.75825234,35.02103098
-46068,37.78680475,34.76625112
-46070,35.81551234,34.50933267
-46069,36.84437386,34.25013471
-46076,29.87338805,33.98852027
-46067,38.90255363,33.72435735
-46076,29.93186936,33.45752005
-46077,28.96133396,33.18788955
-46074,31.99094614,32.9153551
-46071,35.02070465,32.63981496
-46073,33.05060819,32.36117727
-46068,38.08065549,32.07936082
-46072,34.11084526,31.79429583
-46072,34.1411762,31.50592456
-46077,29.17164704,31.21420189
-46076,30.20225646,30.9190958
-46077,29.23300317,30.62058771
-46072,34.26388587,30.31867284
-46075,31.29490325,30.01336033
-46073,33.326054,29.70467339
-46076,30.35733682,29.39264929
-46081,25.38875037,29.07733927
-46083,23.42029336,28.7588084
-46072,34.45196445,28.4371353
-46077,29.48376232,28.11241183
-46084,22.51568565,27.78474268
-46080,26.54773311,27.45424492
-46078,28.57990336,27.12104744
-46082,24.61219507,26.7852904
-46084,22.6446069,26.44712455
-46080,26.67713752,26.1067106
-46084,22.70978557,25.76421846
-46080,26.74254972,25.41982648
-46082,24.77542861,25.07372069
-46081,25.80842091,24.72609397
-46081,25.84152525,24.37714522
-46082,24.87474028,24.02707847
-46084,22.90806464,23.67610205
-46086,20.94149698,23.32442767
-46084,22.97503592,22.97226953
-46088,19.00868012,22.6198434
-46086,21.04242819,22.26736566
-46081,26.07627877,21.91505242
-46089,18.1102305,21.5631185
-46083,24.14428199,21.21177653
-46086,21.17843187,20.86123592
-46087,20.21267876,20.51170193
-46090,17.24702129,20.16337462
-46088,19.28145807,19.81644792
-46089,18.31598772,19.47110854
-46085,22.35060885,19.12753502
-46087,20.38532007,18.78589666
-46089,18.42012001,18.44635253
-46088,19.45500725,18.10905043
-46085,22.48998042,17.7741259
-46089,18.52503811,17.44170118
-46090,17.56017892,17.11188425
-46088,19.59540146,16.78476788
-46094,13.63070433,16.46042865
-46094,13.66608612,16.13892614
-46094,13.70154543,15.82030202
-46088,19.73708085,15.50457929
-46092,15.77269097,15.1917616
-46093,14.80837438,14.88183259
-46088,19.84412968,14.57475535
-46094,13.87995545,14.27047203
-46092,15.91585027,13.96890344
-46093,14.95181272,13.66994895
-46093,14.9878414,13.37348633
-46095,13.02393488,13.07937191
-46102,6.060091736,12.78744077
-46099,9.096310552,12.49750716
-46098,10.1325899,12.20936505
-46094,14.16892836,11.92278883
-46101,7.205324509,11.6375343
-46101,7.241776914,11.35333967
-46097,11.27828415,11.06992685
-46100,8.314844793,10.78700291
-46097,11.35145741,10.50426161
-46096,12.38812057,10.22138525
-46095,13.42483284,9.938046499
-46100,8.461592799,9.653910522
-46097,11.498399,9.368637123
-46100,8.535250015,9.081883065
-46106,2.572144405,8.79330447
-46097,11.60908073,8.502559304
-46104,4.646057567,8.209309919
-46102,6.683073462,7.913225647
-46103,5.720126982,7.613985402
-46102,6.757216688,7.311280289
-46099,9.794341138,7.004816185
-46103,5.831498891,6.694316271
-46100,8.868688506,6.379523493
-46103,5.90590854,6.060202927
-46102,6.943157549,5.736144026
-46108,0.98043409,5.407162726
-46103,6.017736716,5.073103393
-46102,7.055063982,4.733840587
-46103,6.092414444,4.389280624
-46107,2.129786653,4.039362926
-46097,12.16717916,3.684061129
-46107,2.204590527,3.323383964
-46104,5.242019295,2.95737586
-46103,6.279464018,2.586117304
-46108,1.316923246,2.209724913
-46106,3.35439553,1.82835125
-46106,3.391879418,1.442184349
-46110,-0.570626541,1.051446981
-46111,-1.533123797,0.656395644
-46113,-3.495613803,0.257319294
-46112,-2.458098009,-0.145462182
-46109,0.579422134,-0.551599725
-46110,-0.383054827,-0.9607171
-46115,-5.345530341,-1.372413104
-46106,3.69199414,-1.786263969
-46111,-1.270482834,-2.201825942
-46113,-3.232962715,-2.618638022
-46115,-5.195446954,-3.03622484
-46109,0.842063,-3.454099642
-46111,-1.120434306,-3.87176737
-46113,-3.082940321,-4.288727806
-46119,-9.045456496,-4.704478757
-46115,-5.00798428,-5.118519255
-46119,-8.970525124,-5.530352754
-46120,-9.933080476,-5.939490285
-46115,-4.895651785,-6.34545356
-46117,-6.858240497,-6.747777989
-46116,-5.82084806,-7.146015597
-46118,-7.783475921,-7.539737807
-46120,-9.746125525,-7.928538081
-46116,-5.708798317,-8.312034391
-46113,-2.671495741,-8.689871499
-46118,-7.634219242,-9.061723045
-46122,-11.59697026,-9.427293404
-46124,-13.55975025,-9.78631932
-46123,-12.52256064,-10.1385713
-46122,-11.48540287,-10.48385475
-46123,-12.44827839,-10.82201085
-46122,-11.41118863,-11.15291719
-46125,-14.37413503,-11.4764881
-46122,-11.33711903,-11.79267475
-46118,-7.300142064,-12.10146497
-46125,-14.26320556,-12.40288282
-46122,-11.22631096,-12.69698787
-46122,-11.18945969,-12.9838743
-46128,-17.15265318,-13.26366969
-46126,-15.11589286,-13.53653364
-46121,-10.07918016,-13.80265618
-46125,-14.04251651,-14.06225594
-46127,-16.00590333,-14.31557816
-46129,-17.96934206,-14.56289258
-46126,-14.9328341,-14.80449117
-46128,-16.89638088,-15.04068567
-46124,-12.85998383,-15.27180516
-46124,-12.82364436,-15.49819343
-46123,-11.78736389,-15.72020639
-46130,-18.75114384,-15.93820937
-46132,-20.71498562,-16.15257446
-46128,-16.67889064,-16.36367787
-46126,-14.64286031,-16.57189723
-46130,-18.60689605,-16.77760909
-46128,-16.57099927,-16.98118636
-46130,-18.53517137,-17.18299592
-46123,-11.49941375,-17.3833963
-46129,-17.46372782,-17.58273553
-46131,-19.42811499,-17.78134908
-46128,-16.39257665,-17.97955798
-46127,-15.3571142,-18.17766712
-46126,-14.32172905,-18.37596372
-46128,-16.28642258,-18.57471595
-46127,-15.25119619,-18.77417178
-46131,-19.21605127,-18.974558
-46132,-20.18098922,-19.1760795
-46131,-19.14601143,-19.37891862
-46135,-23.11111929,-19.58323483
-46133,-21.07631417,-19.78916451
-46133,-21.04159747,-19.99682099
-46136,-24.00697057,-20.20629469
-46133,-20.97243485,-20.41765355
-46135,-22.93799168,-20.63094349
-46134,-21.90364244,-20.84618915
-46133,-20.86938851,-21.0633947
-46134,-21.83523126,-21.28254485
-46133,-20.80117206,-21.50360589
-46135,-22.76721227,-21.72652696
-46131,-18.73335326,-21.95124135
-46133,-20.6995964,-22.17766789
-46135,-22.66594305,-22.4057124
-46135,-22.63239456,-22.63526929
-46132,-19.5989523,-22.86622308
-46135,-22.56561762,-23.09845002
-46136,-23.53239188,-23.33181976
-46137,-24.49927642,-23.56619693
-46139,-26.4662726,-23.80144281
-46137,-24.43338176,-24.03741689
-46136,-23.40060525,-24.27397847
-46139,-26.36794441,-24.51098819
-46136,-23.33540058,-24.74830944
-46136,-23.30297511,-24.9858098
-46137,-24.27066931,-25.22336233
-46139,-26.23848454,-25.46084681
-46142,-29.20642211,-25.69815081
-46139,-26.17448337,-25.9351708
-46142,-29.14266962,-26.17181295
-46134,-21.1109822,-26.40799398
-46138,-25.07942243,-26.64364183
-46143,-30.04799163,-26.87869615
-46140,-27.01669111,-27.11310874
-46144,-30.98552219,-27.34684381
-46137,-23.95448617,-27.57987816
-46145,-31.92358436,-27.81220115
-46137,-23.89281808,-28.04381463
-46138,-24.86218862,-28.27473267
-46141,-27.83169728,-28.50498124
-46143,-29.80134537,-28.73459773
-46143,-29.77113417,-28.96363033
-46139,-25.74106498,-29.19213742
-46141,-27.71113909,-29.42018674
-46144,-30.68135778,-29.64785455
-46147,-33.65172235,-29.87522467
-46148,-34.62223407,-30.10238752
-46145,-31.59289422,-30.32943902
-46145,-31.56370407,-30.55647952
-46145,-31.53466491,-30.78361264
-46147,-33.50577799,-31.01094416
-46143,-29.47704459,-31.23858082
-46148,-34.44846596,-31.46662919
-46148,-34.42004337,-31.69519456
-46141,-27.39177808,-31.92437982
-46145,-31.36367133,-32.15428442
-46143,-29.33572438,-32.38500335
-46146,-32.30793848,-32.61662628
-46151,-37.28031487,-32.84923664
-46142,-28.2528548,-33.0829109
-46145,-31.2255595,-33.31771791
-46146,-32.19843021,-33.55371833
-46148,-34.17146816,-33.79096419
-46148,-34.14467459,-34.02949855
-46145,-31.11805071,-34.26935529
-46147,-33.09159776,-34.51055901
-46149,-35.06531695,-34.75312506
-46149,-35.0392095,-34.99705963
-46149,-35.01327663,-35.24236008
-46150,-35.98751954,-35.48901521
-46147,-32.96193945,-35.7370058
-46150,-35.93653755,-35.98630508
-46150,-35.91131505,-36.23687946
-46152,-37.88627314,-36.48868917
-46148,-33.86141303,-36.74168908
-46150,-35.83673589,-36.99582955
-46152,-37.81224292,-37.25105725
-46153,-38.78793529,-37.50731615
-46155,-40.7638142,-37.76454839
-46155,-40.73988082,-38.02269522
-46153,-38.71613631,-38.28169797
-46156,-41.69258185,-38.54149891
-46152,-37.66921861,-38.80204217
-46158,-43.64604773,-39.06327455
-46155,-40.62307039,-39.32514636
-46151,-36.60028773,-39.58761209
-46153,-38.5777009,-39.85063114
-46156,-41.55531105,-40.11416838
-46153,-38.53311933,-40.37819467
-46157,-42.51112686,-40.64268732
-46155,-40.48933478,-40.90763039
-46156,-41.46774423,-41.173015
-46151,-36.44635633,-41.43883945
-46157,-42.4251722,-41.7051093
-46158,-43.40419296,-41.9718374
-46162,-47.38341973,-42.23904373
-46155,-40.36285362,-42.50675522
-46158,-43.34249573,-42.7750055
-46157,-42.32234717,-43.04383452
-46153,-38.30240903,-43.31328815
-46160,-45.28268241,-43.58341766
-46163,-48.2631684,-43.8542792
-46160,-45.24386808,-44.12593315
-46155,-40.22478254,-44.39844351
-46159,-44.20591286,-44.67187717
-46160,-45.1872601,-44.9463032
-46157,-42.16882534,-45.22179209
-46159,-44.15060964,-45.49841502
-46163,-48.13261406,-45.77624303
-46160,-45.11483967,-46.05534632
-46163,-48.0972875,-46.3357934
-46163,-48.07995861,-46.61765042
-46159,-44.06285405,-46.90098042
-46164,-49.04597485,-47.18584262
-46158,-43.02932204,-47.47229178
-46163,-48.01289665,-47.76037758
-46164,-48.99669971,-48.05014407
-46168,-52.98073225,-48.34162916
-46164,-48.96499527,-48.63486416
-46165,-49.94948979,-48.92987341
-46163,-47.93421681,-49.22667397
-46167,-51.91917734,-49.52527535
-46162,-46.90437237,-49.8256794
-46170,-54.88980289,-50.12788015
-46163,-47.87546989,-50.43186385
-46167,-51.86137436,-50.73760904
-46165,-49.84751727,-51.04508665
-46167,-51.8338996,-51.35426027
-46166,-50.82052231,-51.66508644
-46162,-46.80738636,-51.97751499
-46167,-51.79449271,-52.29148957
-46168,-52.78184232,-52.60694806
-46162,-46.76943614,-52.92382322
-46167,-51.7572751,-53.24204329
-46172,-56.74536016,-53.56153267
-46174,-58.73369223,-53.88221268
-46171,-55.72227225,-54.20400225
-46167,-51.71110115,-54.52681876
-46173,-57.70017983,-54.85057885
-46174,-58.68950922,-55.17519919
-46168,-52.67909022,-55.50059734
-46174,-58.66892373,-55.82669253
-46171,-55.65901065,-56.15340647
-46168,-52.64935186,-56.4806641
-46174,-58.63994826,-56.80839433
-46170,-54.63080073,-57.1365307
-46170,-54.62191013,-57.46501206
-46172,-56.61327734,-57.7937831
-46174,-58.60490323,-58.1227949
-46173,-57.59678864,-58.45200531
-46177,-61.58893444,-58.78137934
-46174,-58.58134147,-59.11088943
-46173,-57.57401058,-59.44051564
-46177,-61.56694259,-59.77024569
-46180,-64.56013834,-60.10007503
-46178,-62.55359866,-60.43000668
-46175,-59.54732436,-60.76005109
-46175,-59.54131626,-61.0902258
-46181,-65.53557516,-61.42055513
-46176,-60.53010186,-61.75106967
-46174,-58.52489715,-62.08180576
-46179,-63.51996184,-62.41280488
-46184,-68.51529669,-62.74411296
-46176,-60.51090249,-63.07577963
-46181,-65.50678,-63.40785745
-46175,-59.50293,-63.74040108
-46181,-65.49935323,-64.0734664
-46181,-65.49605046,-64.40710967
-46181,-65.49302242,-64.7413866
-46183,-67.49026987,-65.07635155
-46183,-67.48779352,-65.41205663
-46180,-64.48559411,-65.74855088
-46186,-70.48367236,-66.08587951
-46184,-68.48202899,-66.42408318
-46180,-64.48066469,-66.76319733
-46183,-67.47958018,-67.10325163
-46176,-60.47877615,-67.44426945
-46181,-65.47825328,-67.78626746
-46179,-63.47801226,-68.12925537
-46182,-66.47805376,-68.47323566
-46183,-67.47837846,-68.81820354
-46184,-68.47898702,-69.16414696
-46184,-68.47988009,-69.51104669
-46187,-71.48105833,-69.85887657
-46179,-63.48252237,-70.20760385
-46186,-70.48427287,-70.5571896
-46187,-71.48631044,-70.90758923
-46191,-75.48863572,-71.25875308
-46188,-72.49124931,-71.61062707
-46186,-70.49415183,-71.96315346
-46189,-73.49734389,-72.31627163
-46191,-75.50082607,-72.66991884
-46189,-73.50459897,-73.02403111
-46189,-73.50866317,-73.37854408
-46188,-72.51301925,-73.7333938
-46188,-72.51766777,-74.0885176
-46193,-77.52260929,-74.44385487
-46193,-77.52784437,-74.7993478
-46191,-75.53337355,-75.15494213
-46194,-78.53919737,-75.51058771
-46190,-74.54531637,-75.86623913
-46187,-71.55173106,-76.22185614
-46200,-84.55844197,-76.57740407
-46190,-74.5654496,-76.93285407
-46187,-71.57275446,-77.28818333
-46191,-75.58035704,-77.64337515
-46197,-81.58825782,-77.99841887
-46191,-75.59645729,-78.35330973
-46197,-81.60495593,-78.70804866
-46195,-79.61375418,-79.06264185
-46192,-76.62285253,-79.41710034
-46199,-83.6322514,-79.77143946
-46193,-77.64195125,-80.12567815
-46195,-79.65195251,-80.47983826
-46201,-85.6622556,-80.83394379
-46201,-85.67286094,-81.18801999
-46199,-83.68376896,-81.54209251
-46196,-80.69498003,-81.89618647
-46196,-80.70649457,-82.2503255
-46202,-86.71831296,-82.60453087
-46202,-86.73043558,-82.95882052
-46201,-85.74286279,-83.31320819
-46202,-86.75559496,-83.66770258
-46196,-80.76863245,-84.02230662
-46197,-81.78197559,-84.37701669
-46200,-84.79562473,-84.73182211
-46195,-79.80958019,-85.08670459
-46196,-80.82384231,-85.44163787
-46195,-79.83841138,-85.79658745
-46198,-82.85328772,-86.15151052
-46195,-79.86847163,-86.50635593
-46201,-85.88396339,-86.86106439
-46202,-86.89976329,-87.21556881
-46204,-88.9158716,-87.56979472
-46208,-92.93228859,-87.92366093
-46208,-92.94901452,-88.27708025
-46204,-88.96604963,-88.62996037
-46207,-91.98339416,-88.9822049
-46203,-88.00104835,-89.33371446
-46206,-91.01901241,-89.68438794
-46205,-90.03728656,-90.03412376
-46201,-86.05587101,-90.38282127
-46203,-88.07476594,-90.73038219
-46206,-91.09397156,-91.07671208
-46206,-91.11348803,-91.42172179
-46207,-92.13331552,-91.76532897
-46204,-89.15345421,-92.10745951
-46206,-91.17390423,-92.44804899
-46207,-92.19466574,-92.78704397
-46206,-91.21573887,-93.12440333
-46209,-94.23712375,-93.46009939
-46211,-96.25882049,-93.79411902
-46212,-97.2808292,-94.12646451
-46209,-94.30314998,-94.45715438
-46205,-90.32578292,-94.786224
-46212,-97.34872811,-95.11372603
-46216,-101.3719856,-95.43973069
-46217,-102.3955555,-95.76432584
-46213,-98.41943777,-96.08761687
-46216,-101.4436325,-96.40972644
-46216,-101.4681398,-96.73079392
-46213,-98.49295961,-97.05097479
-46207,-92.51809195,-97.37043976
-46211,-96.54353684,-97.68937373
-46213,-98.56929426,-98.00797462
-46213,-98.59536421,-98.32645205
-46210,-95.62174666,-98.64502582
-46220,-105.6484416,-98.96392438
-46209,-94.67544893,-99.28338312
-46208,-93.70276864,-99.6036426
-46213,-98.73040067,-99.92494671
-46213,-98.75834494,-100.2475408
-46213,-98.78660137,-100.5716698
-46212,-97.81516987,-100.8975762
-46213,-98.84405034,-101.2254984
-46219,-104.8732427,-101.5556686
-46216,-101.9027467,-101.8883111
-46221,-106.9325624,-102.2236407
-46215,-100.9626896,-102.5618607
-46212,-97.99312808,-102.9031618
-46216,-102.0238777,-103.2477202
-46219,-105.0549384,-103.5956967
-46219,-105.0863099,-103.9472353
-46214,-100.117992,-104.3024621
-46223,-109.1499845,-104.6614848
-46215,-101.1822873,-105.0243915
-46219,-105.2149001,-105.3912505
-46223,-109.2478226,-105.7621097
-46219,-105.2810547,-106.1369965
-46222,-108.3145961,-106.5159178
-46217,-103.3484465,-106.8988598
-46222,-108.3826057,-107.2857888
-46220,-106.4170734,-107.6766509
-46224,-110.4518493,-108.0713733
-46226,-112.486933,-108.4698645
-46227,-113.5223244,-108.8720154
-46221,-107.558023,-109.2777001
-46223,-109.5940285,-109.6867773
-46219,-105.6303406,-110.099091
-46222,-108.6669589,-110.5144722
-46224,-110.7038831,-110.93274
-46222,-108.7411128,-111.3537032
-46229,-115.7786476,-111.7771616
-46224,-110.8164871,-112.2029078
-46227,-113.8546309,-112.6307284
-46222,-108.8930786,-113.0604057
-46233,-119.9318297,-113.4917193
-46224,-110.9708838,-113.9244478
-46231,-118.0102406,-114.3583699
-46229,-116.0498994,-114.7932662
-46224,-111.0898598,-115.2289204
-46226,-113.1301214,-115.6651211
-46228,-115.1706836,-116.1016624
-46229,-116.211546,-116.5383456
-46231,-118.252708,-116.9749801
-46230,-117.2941691,-117.4113846
-46229,-116.3359287,-117.8473876
-46231,-118.3779864,-118.2828283
-46232,-119.4203415,-118.7175577
-46230,-117.4629934,-119.1514381
-46235,-122.5059417,-119.5843445
-46236,-123.5491856,-120.0161642
-46230,-117.5927246,-120.446797
-46233,-120.636558,-120.8761555
-46234,-121.6806853,-121.3041645
-46238,-125.7251058,-121.7307609
-46235,-122.7698188,-122.1558933
-46237,-124.8148236,-122.5795216
-46236,-123.8601196,-123.0016161
-46239,-126.9057061,-123.4221573
-46235,-122.9515824,-123.8411344
-46236,-123.9977477,-124.2585451
-46232,-120.0442014,-124.6743945
-46236,-124.0909426,-125.088694
-46241,-129.1379708,-125.5014607
-46236,-124.1852849,-125.9127161
-46238,-126.2328844,-126.3224854
-46239,-127.2807684,-126.7307965
-46239,-127.3289362,-127.137679
-46242,-130.3773868,-127.5431639
-46238,-126.4261195,-127.9472821
-46242,-130.4751335,-128.3500643
-46233,-121.5244278,-128.7515404
-46241,-129.5740017,-129.1517388
-46243,-131.6238542,-129.5506863
-46241,-129.6739844,-129.948408
-46241,-129.7243916,-130.3449267
-46236,-124.7750747,-130.7402638
-46243,-131.8260328,-131.1344388
-46243,-131.8772651,-131.5274701
-46240,-128.9287704,-131.9193753
-46243,-131.980548,-132.3101718
-46250,-139.0325967,-132.699878
-46245,-134.0849157,-133.0885134
-46244,-133.1375039,-133.4761005
-46244,-133.1903603,-133.8626651
-46242,-131.2434839,-134.2482382
-46244,-133.2968736,-134.6328565
-46247,-136.3505284,-135.0165645
-46244,-133.4044472,-135.399415
-46243,-132.4586289,-135.7814712
-46244,-133.5130725,-136.1628075
-46247,-136.5677768,-136.543511
-46250,-139.6227408,-136.9236827
-46251,-140.6779633,-137.3034383
-46244,-133.7334431,-137.68291
-46251,-140.7891791,-138.0622463
-46254,-143.8451701,-138.4416137
-46247,-136.901415,-138.8211966
-46249,-138.9579125,-139.2011977
-46251,-141.0146614,-139.5818382
-46250,-140.0716605,-139.9633576
-46246,-136.1289086,-140.346013
-46250,-140.1864045,-140.7300786
-46252,-142.2441467,-141.1158443
-46247,-137.3021341,-141.5036146
-46254,-144.3603654,-141.8937067
-46253,-143.4188393,-142.2864481
-46257,-147.4775544,-142.6821748
-46252,-142.5365095,-143.0812277
-46251,-141.5957031,-143.48395
-46256,-146.6551339,-143.8906833
-46253,-143.7148005,-144.3017638
-46256,-146.7747016,-144.7175183
-46257,-147.8348357,-145.1382592
-46255,-145.8952014,-145.5642798
-46255,-145.9557973,-145.9958495
-46256,-147.016622,-146.4332078
-46256,-147.0776739,-146.8765588
-46258,-149.1389516,-147.3260657
-46254,-145.2004537,-147.7818441
-46257,-148.2621785,-148.2439563
-46250,-141.3241247,-148.7124048
-46258,-149.3862906,-149.1871259
-46256,-147.4486747,-149.6679834
-46262,-153.5112754,-150.1547622
-46255,-146.5740913,-150.647162
-46263,-154.6371206,-151.1447909
-46265,-156.7003618,-151.6471599
-46264,-155.7638133,-152.1536766
-46260,-151.8274734,-152.66364
-46262,-153.8913405,-153.1762352
-46260,-151.9554129,-153.6905285
-46265,-157.0196889,-154.2054629
-46259,-151.0841669,-154.7198547
-46263,-155.1488452,-155.2323893
-46267,-159.2137219,-155.7416189
-46260,-152.2787954,-156.2459601
-46267,-159.344064,-156.7436922
-46266,-158.4095258,-157.2329566
-46268,-160.4751791,-157.7117563
-46265,-157.541022,-158.1779568
-46265,-157.6070528,-158.6292872
-46264,-156.6732697,-159.0633428
-46272,-164.7396707,-159.4775878
-46267,-159.806254,-159.8693595
-46264,-156.8730178,-160.2358731
-46268,-160.9399601,-160.5742271
-46266,-159.0070791,-160.8814103
-46264,-157.0743728,-161.1543088
-46265,-158.1418393,-161.3897146
-46265,-158.2094766,-161.5843346
-46271,-164.2772828,-161.7348008
-46265,-158.3452558,-161.8376806
-46268,-161.4133937,-161.8894888
-46268,-161.4816945,-161.8866996
-46269,-162.5501562,-161.8257595
-46264,-157.6187766,-161.7031008
-46271,-164.6875537,-161.5151557
-46266,-159.7564855,-161.2583708
-46264,-157.8255698,-160.9292221
-46267,-160.8948046,-160.5242305
-46267,-160.9641876,-160.0399769
-46264,-158.0337169,-159.4731182
-46265,-159.1033902,-158.8204035
-46268,-162.1732053,-158.0786893
-46262,-156.2431601,-157.2449557
-46264,-158.3132524,-156.3163222
-46258,-152.3834799,-155.2900624
-46260,-154.4538404,-154.1636197
-46260,-154.5243317,-152.9346215
-46253,-147.5949514,-151.6008932
-46256,-150.6656974,-150.1604718
-46252,-146.7365674,-148.6116186
-46256,-150.807559,-146.952831
-46248,-142.8786698,-145.1828534
-46250,-144.9498977,-143.3006878
-46245,-140.0212401,-141.3056026
-46247,-142.0926949,-139.1971404
-46240,-135.1642595,-136.9751253
-46241,-136.2359316,-134.6396686
-46240,-135.3077088,-132.1911729
-46238,-133.3795886,-129.6303356
-46232,-127.4515687,-126.9581508
-46230,-125.5236466,-124.1759098
-46225,-120.5958199,-121.2852005
-46222,-117.668086,-118.287905
-46222,-117.7404426,-115.1861965
-46219,-114.812887,-111.9825344
-46211,-106.8854169,-108.6796581
-46208,-103.9580296,-105.2805799
-46208,-104.0307227,-101.7885761
-46206,-102.1034937,-98.2071774
-46199,-95.17633996,-94.54015772
-46190,-86.24925897,-90.79152229
-46192,-88.32224816,-86.96549441
-46187,-83.39530496,-83.06650143
-46185,-81.4684268,-79.09915973
-46179,-75.54161108,-75.068259
-46178,-74.61485521,-70.97874569
-46175,-71.6881566,-66.83570595
-46169,-65.76151262,-62.64434796
-46163,-59.83492067,-58.40998387
-46160,-56.90837812,-54.13801139
-46151,-47.98188234,-49.83389516
-46146,-43.0554307,-45.50314805
-46143,-40.12902056,-41.1513123
-46139,-36.20264929,-36.78394092
-46131,-28.27631422,-32.40657913
-46127,-24.35001272,-28.02474611
-46124,-21.42374213,-23.64391719
-46118,-15.49749979,-19.26950642
-46109,-6.571283056,-14.90684971
-46112,-9.645089261,-10.56118859
-46108,-5.718915749,-6.237654708
-46103,-0.792759859,-1.941255046
-46100,2.133381069,2.323142018
-46093,9.059509694,6.550819755
-46092,9.985628677,10.73722521
-46091,10.91174068,14.87798038
-46083,18.83784835,18.96889231
-46074,27.76395435,23.0059623
-46071,30.69006134,26.98539393
-46072,29.61617197,30.90360012
-46069,32.54228888,34.75720909
-46056,45.46841473,38.54306932
-46063,38.39455215,42.2582534
-46054,47.32070378,45.90006089
-46051,50.24687226,49.46602021
-46044,57.17306022,52.95388952
-46045,56.09927028,56.36165664
-46043,58.02550507,59.68753811
-46038,62.95176718,62.92997739
-46038,62.87805925,66.08764222
-46033,67.80438385,69.15942119
-46031,69.7307436,72.14441968
-46029,71.65714107,75.04195504
-46025,75.58357886,77.85155118
-46019,81.51005953,80.57293267
-46018,82.43658565,83.20601822
-46010,90.36315979,85.7509138
-46017,83.28978449,88.20790533
-46013,87.2164623,90.57745102
-46011,89.14319575,92.86017339
-46012,88.06998737,95.0568511
-46002,97.99683967,97.16841053
-45999,100.9237552,99.19591725
-45999,100.8507363,101.1405673
-45997,102.7777857,103.0036784
-45996,103.7049057,104.7866813
-45993,106.6320989,106.491111
-45993,106.5593676,108.1185976
-45990,109.4867144,109.6708582
-45988,111.4141416,111.1496878
-45982,117.3416517,112.5569511
-45984,115.2692472,113.8945739
-45987,112.1969304,115.1645349
-45978,121.1247037,116.368858
-45981,118.0525694,117.5096038
-45979,119.9805301,118.5888626
-45979,119.908588,119.6087465
-45975,123.8367454,120.5713825
-45973,125.7650047,121.4789054
-45980,118.6933683,122.3334509
-45977,121.6218384,123.1371497
-45976,122.5504174,123.8921205
-45973,125.4791075,124.6004651
-45973,125.407911,125.2642619
-45971,127.3368301,125.8855611
-45977,121.2658672,126.4663795
-45969,129.1950244,127.0086957
-45967,131.124304,127.5144459
-45970,128.0537082,127.9855197
-45968,129.9832392,128.4237562
-45967,130.9128992,128.8309407
-45967,130.8426904,129.2088014
-45969,128.7726148,129.5590067
-45969,128.7026748,129.8831625
-45972,125.6328723,130.1828104
-45966,131.5632096,130.4594252
-45967,130.4936888,130.7144138
-45964,133.4243118,130.949114
-45970,127.3550809,131.1647932
-45970,127.2859982,131.362648
-45966,131.2170656,131.543804
-45968,129.1482852,131.7093154
-45964,133.079659,131.8601655
-45963,134.0111892,131.9972671
-45962,134.9428776,132.1214636
-45968,128.8747263,132.2335294
-45964,132.8067373,132.3341719
-45961,135.7389125,132.4240325
-45966,130.6712539,132.5036886
-45969,127.6037634,132.5736554
-45963,133.536443,132.6343881
-45963,133.4692947,132.6862841
-45964,132.4023202,132.7296857
-45963,133.3355215,132.7648822
-45961,135.2689005,132.7921132
-45964,132.202459,132.811571
-45965,131.1361989,132.823404
-45959,137.0701221,132.8277189
-45964,132.0042303,132.8245848
-45960,135.9385254,132.8140353
-45962,133.8730092,132.7960724
-45962,133.8076834,132.7706693
-45966,129.74255,132.7377737
-45966,129.6776105,132.6973107
-45963,132.6128667,132.6491864
-45962,133.5483205,132.5932905
-45963,132.4839735,132.5294997
-45962,133.4198274,132.4576804
-45963,132.3558839,132.3776919
-45961,134.2921448,132.2893891
-45965,130.2286116,132.1926252
-45961,134.1652861,132.0872546
-45967,128.1021699,131.973135
-45964,131.0392646,131.8501303
-45958,136.9765718,131.7181128
-45961,133.9140932,131.5769653
-45962,132.8518304,131.4265832
-45966,128.7897848,131.2668767
-45963,131.7279582,131.0977721
-45964,130.666352,130.9192141
-45967,127.6049678,130.7311669
-45963,131.5438071,130.5336156
-45967,127.4828715,130.3265677
-45963,131.4221624,130.1100541
-45966,128.3616814,129.8841296
-45967,127.3014298,129.6488745
-45965,129.2414092,129.4043943
-45966,128.1816211,129.150821
-45961,133.1220669,128.8883128
-45965,129.0627479,128.6170543
-45968,126.0036657,128.3372567
-45969,124.9448216,128.0491575
-45966,127.886217,127.75302
-45968,125.8278532,127.449133
-45967,126.7697318,127.1378096
-45969,124.711854,126.8193869
-45965,128.6542211,126.4942246
-45962,131.5968345,126.1627039
-45968,125.5396954,125.8252261
-45971,122.4828053,125.4822108
-45971,122.4261654,125.1340947
-45971,122.369777,124.7813293
-45965,128.3136412,124.4243793
-45972,121.2577595,124.0637201
-45970,123.202133,123.6998357
-45968,125.146763,123.3332163
-45967,126.0916507,122.964356
-45967,126.0367972,122.5937501
-45967,125.9822038,122.2218924
-45966,126.9278717,121.8492725
-45970,122.8738021,121.4763733
-45973,119.819996,121.1036681
-45977,115.7664546,120.7316178
-45969,123.7131792,120.3606683
-45968,124.6601707,119.9912478
-45971,121.6074303,119.6237639
-45976,116.5549591,119.2586017
-45971,121.5027582,118.8961207
-45975,117.4508286,118.5366532
-45976,116.3991715,118.1805016
-45970,122.3477878,117.8279369
-45975,117.2966787,117.4791965
-45981,111.2458451,117.1344835
-45978,114.195288,116.7939645
-45975,117.1450085,116.4577691
-45978,114.0950075,116.1259893
-45977,115.0452861,115.7986785
-45978,113.9958451,115.4758517
-45977,114.9466857,115.1574855
-45984,107.8978086,114.8435184
-45981,110.8492149,114.5338514
-45976,115.8009054,114.2283493
-45981,110.7528812,113.9268415
-45981,110.705143,113.6291235
-45977,114.6576918,113.3349589
-45979,112.6105285,113.0440812
-45981,110.5636539,112.7561955
-45980,111.517069,112.4709818
-45981,110.4707745,112.1880964
-45980,111.4247712,111.9071753
-45980,111.3790601,111.6278364
-45977,114.3336419,111.3496828
-45977,114.2885175,111.0723051
-45979,112.2436875,110.7952846
-45979,112.1991529,110.518196
-45978,113.1549144,110.2406104
-45987,104.1109728,109.9620975
-45977,114.0673287,109.682229
-45982,109.023983,109.4005806
-45976,114.9809363,109.1167343
-45980,110.9381895,108.830281
-45982,108.8957431,108.5408223
-45981,109.8535979,108.2479724
-45982,108.8117546,107.9513596
-45987,103.7702138,107.6506279
-45981,109.7289763,107.3454383
-45984,106.6880426,107.0354695
-45977,113.6474135,106.7204188
-45981,109.6070894,106.4000027
-45983,107.5670712,106.0739573
-45983,107.5273593,105.7420385
-45985,105.4879544,105.4040217
-45988,102.448857,105.0597018
-45982,108.4100678,104.7088931
-45988,102.3715873,104.3514282
-45987,103.3334161,103.9871581
-45987,103.2955547,103.6159511
-45994,96.25800364,103.2376923
-45985,105.2207635,102.8522825
-45990,100.1838347,102.4596376
-45988,102.1472179,102.0596878
-45993,97.11091345,101.6523765
-45987,103.0749219,101.23766
-45994,96.03924376,100.8155061
-45990,100.0038795,100.385894
-45989,100.9688295,99.94881332
-45992,97.93409421,99.50426377
-45994,95.89967416,99.05225463
-45992,97.86556974,98.59280445
-45997,92.83178137,98.12594081
-45994,95.79830945,97.65170023
-45993,96.76515439,97.17012812
-45991,98.73231659,96.68127889
-45993,96.69979642,96.18521614
-45992,97.66759425,95.6820129
-45996,93.63571046,95.17175202
-45995,94.6041454,94.65452656
-45998,91.57289941,94.13044026
-45996,93.54197283,93.59960808
-45996,93.51136598,93.06215674
-45995,94.48107918,92.51822523
-45995,94.45111274,91.96796542
-45998,91.42146696,91.41154254
-45997,92.39214213,90.84913573
-45993,96.36313854,90.28093842
-45997,92.33445644,89.70715881
-45997,92.30609611,89.12802008
-45997,92.27805779,88.54376072
-46001,88.25034174,87.95463457
-46003,86.22294818,87.36091092
-46001,88.19587735,86.76287435
-46007,82.16912945,86.1608246
-46007,82.14270471,85.5550762
-46009,80.11660332,84.94595801
-46007,82.09082548,84.33381268
-46002,87.06537137,83.71899592
-46002,87.04024116,83.10187568
-46007,82.01543503,82.48283122
-46005,83.99095314,81.86225206
-46006,82.96679563,81.2405368
-46010,78.94296266,80.61809188
-46012,76.91945436,79.99533023
-46013,75.89627085,79.37266983
-46012,76.87341226,78.75053224
-46014,74.8508787,78.12934103
-46004,84.82867027,77.50952019
-46010,78.80678708,76.8914925
-46015,73.7852292,76.27567791
-46010,78.76399674,75.66249186
-46013,75.74308975,75.05234368
-46016,72.7225083,74.44563497
-46015,73.70225246,73.84275802
-46016,72.68232228,73.24409429
-46013,75.66271779,72.65001299
-46016,72.64343905,72.06086969
-46014,74.62448608,71.47700505
-46017,71.6058589,70.89874364
-46019,69.58755753,70.32639291
-46021,67.56958198,69.76024224
-46019,69.55193225,69.20056214
-46021,67.53460833,68.64760362
-46025,63.51761022,68.10159769
-46022,66.50093789,67.56275496
-46027,61.48459133,67.03126552
-46023,65.46857049,66.50729885
-46023,65.45287535,65.99100395
-46022,66.43750586,65.48250964
-46020,68.42246196,64.98192497
-46027,61.40774362,64.48933979
-46021,67.39335075,64.0048255
-46023,65.37928329,63.52843588
-46024,64.36554116,63.06020803
-46025,63.35212429,62.60016355
-46027,61.33903258,62.14830961
-46030,58.32626594,61.70464031
-46026,62.31382427,61.269138
-46028,60.30170745,60.84177467
-46025,63.28991539,60.42251345
-46032,56.27844796,60.01131004
-46029,59.26730502,59.60811421
-46032,56.25648647,59.21287133
-46030,58.24599214,58.82552382
-46029,59.23582192,58.44601257
-46032,56.22597564,58.07427835
-46029,59.21645315,57.71026316
-46028,60.2072543,57.35391141
-46031,57.19837891,57.00517116
-46030,58.18982683,56.66399513
-46032,56.18159786,56.33034165
-46032,56.17369184,56.00417552
-46027,61.16610856,55.68546865
-46028,60.15884784,55.37420069
-46034,54.15190948,55.07035939
-46034,54.14529327,54.77394094
-46031,57.13899901,54.48495006
-46035,53.13302647,54.20340004
-46036,52.12737543,53.92931258
-46038,50.12204567,53.6627175
-46037,51.11703695,53.40365237
-46034,54.11234905,53.15216195
-46036,52.1079817,52.90829753
-46034,54.10393468,52.67211622
-46032,56.10020772,52.44368006
-46038,50.09680056,52.22305507
-46036,52.09371295,52.01031029
-46038,50.09094462,51.80551666
-46037,51.08849528,51.60874591
-46036,52.08636467,51.42006937
-46037,51.0845525,51.23955683
-46034,54.08305847,51.0672753
-46037,51.08188231,50.90328786
-46039,49.0810237,50.74765241
-46040,48.08048234,50.6004206
-46030,58.08025792,50.46163663
-46042,46.08035014,50.33133627
-46039,49.08075866,50.20954579
-46039,49.08148318,50.09628106
-46037,51.08252334,49.99154668
-46042,46.08387883,49.89533523
-46042,46.08554931,49.80762657
-46040,48.08753442,49.72838726
-46038,50.08983383,49.65757011
-46038,50.09244718,49.59511378
-46038,50.09537411,49.5409425
-46040,48.09861425,49.49496596
-46040,48.10216725,49.45707918
-46040,48.10603273,49.42716261
-46039,49.11021031,49.40508228
-46036,52.11469961,49.39069
-46035,53.11950024,49.38382374
-46035,53.12461181,49.38430808
-46039,49.13003393,49.39195464
-46039,49.13576619,49.40656279
-46042,46.14180818,49.4279202
-46039,49.14815949,49.45580367
-46040,48.15481971,49.48997984
-46030,58.16178841,49.53020612
-46036,52.16906516,49.5762315
-46038,50.17664954,49.62779754
-46039,49.18454111,49.68463932
-46039,49.19273943,49.74648646
-46037,51.20124404,49.8130641
-46043,45.2100545,49.884094
-46040,48.21917034,49.95929554
-46040,48.22859112,50.03838679
-46040,48.23831635,50.1210856
-46038,50.24834558,50.20711059
-46037,51.25867832,50.29618229
-46035,53.26931409,50.38802405
-46040,48.28025241,50.48236316
-46036,52.29149278,50.57893174
-46035,53.30303472,50.67746775
-46040,48.31487772,50.77771588
-46039,49.32702127,50.87942843
-46041,47.33946486,50.9823661
-46036,52.35220797,51.08629883
-46038,50.3652501,51.19100645
-46034,54.3785907,51.29627937
-46038,50.39222925,51.40191917
