,Amplitude
0,3.0
1,22.0
2,23.0
3,24.0
4,20.0
5,15.0
6,11.0
7,13.0
8,18.0
9,20.0
10,18.0
11,13.0
12,12.0
13,13.0
14,0.0
15,31.0
16,31.0
17,27.0
18,27.0
19,27.0
20,29.0
21,28.0
22,27.0
23,26.0
24,25.0
25,24.0
26,23.0
27,24.0
28,25.0
29,27.0
30,28.0
31,27.0
32,22.0
33,26.0
34,27.0
35,27.0
36,29.0
37,25.0
38,25.0
39,27.0
40,26.0
41,24.0
42,23.0
43,23.0
44,21.0
45,23.0
46,21.0
47,18.0
48,17.0
49,10.0
50,9.0
51,15.0
52,13.0
53,8.0
54,9.0
55,15.0
56,22.0
57,28.0
58,24.0
59,26.0
60,27.0
61,25.0
62,23.0
63,18.0
64,18.0
65,23.0
66,27.0
67,25.0
68,19.0
69,21.0
70,24.0
71,26.0
72,26.0
73,31.0
74,25.0
75,26.0
76,29.0
77,25.0
78,25.0
79,28.0
80,24.0
81,22.0
82,28.0
83,25.0
84,25.0
85,25.0
86,28.0
87,27.0
88,28.0
89,28.0
90,28.0
91,34.0
92,32.0
93,30.0
94,26.0
95,24.0
96,25.0
97,25.0
98,29.0
99,28.0
100,24.0
101,23.0
102,19.0
103,24.0
104,26.0
105,28.0
106,27.0
107,24.0
108,24.0
109,25.0
110,25.0
111,26.0
112,26.0
113,27.0
114,27.0
115,25.0
116,28.0
117,25.0
118,22.0
119,23.0
120,27.0
121,28.0
122,25.0
123,25.0
124,23.0
125,26.0
126,28.0
127,33.0
128,33.0
129,32.0
130,29.0
131,31.0
132,31.0
133,29.0
134,28.0
135,31.0
136,28.0
137,22.0
138,17.0
139,17.0
140,19.0
141,26.0
142,29.0
143,29.0
144,25.0
145,22.0
146,26.0
147,29.0
148,27.0
149,28.0
150,29.0
151,26.0
152,28.0
153,28.0
154,31.0
155,34.0
156,33.0
157,28.0
158,28.0
159,25.0
160,29.0
161,26.0
162,25.0
163,28.0
164,28.0
165,31.0
166,33.0
167,30.0
168,28.0
169,32.0
170,34.0
171,30.0
172,26.0
173,29.0
174,29.0
175,31.0
176,32.0
177,28.0
178,28.0
179,29.0
180,29.0
181,31.0
182,33.0
183,36.0
184,39.0
185,40.0
186,33.0
187,30.0
188,28.0
189,30.0
190,32.0
191,32.0
192,32.0
193,31.0
194,29.0
195,29.0
196,26.0
197,25.0
198,30.0
199,29.0
200,30.0
201,32.0
202,32.0
203,33.0
204,27.0
205,25.0
206,31.0
207,29.0
208,26.0
209,31.0
210,29.0
211,31.0
212,33.0
213,36.0
214,39.0
215,37.0
216,36.0
217,33.0
218,34.0
219,31.0
220,26.0
221,28.0
222,30.0
223,29.0
224,30.0
225,32.0
226,32.0
227,30.0
228,32.0
229,33.0
230,30.0
231,30.0
232,26.0
233,22.0
234,25.0
235,27.0
236,26.0
237,24.0
238,22.0
239,23.0
240,25.0
241,28.0
242,29.0
243,26.0
244,27.0
245,26.0
246,26.0
247,24.0
248,22.0
249,22.0
250,25.0
251,26.0
252,27.0
253,27.0
254,27.0
255,27.0
256,27.0
257,26.0
258,30.0
259,32.0
260,29.0
261,27.0
262,25.0
263,29.0
264,28.0
265,29.0
266,29.0
267,26.0
268,23.0
269,21.0
270,25.0
271,26.0
272,27.0
273,27.0
274,28.0
275,29.0
276,31.0
277,29.0
278,27.0
279,24.0
280,22.0
281,20.0
282,18.0
283,13.0
284,10.0
285,17.0
286,27.0
287,29.0
288,30.0
289,33.0
290,30.0
291,27.0
292,27.0
293,25.0
294,24.0
295,27.0
296,26.0
297,27.0
298,27.0
299,28.0
300,25.0
301,27.0
302,26.0
303,26.0
304,26.0
305,29.0
306,31.0
307,28.0
308,25.0
309,25.0
310,23.0
311,21.0
312,21.0
313,22.0
314,23.0
315,26.0
316,25.0
317,26.0
318,25.0
319,24.0
320,24.0
321,26.0
322,30.0
323,29.0
324,27.0
325,24.0
326,27.0
327,27.0
328,28.0
329,27.0
330,23.0
331,23.0
332,18.0
333,22.0
334,23.0
335,19.0
336,19.0
337,19.0
338,22.0
339,27.0
340,31.0
341,29.0
342,30.0
343,27.0
344,28.0
345,31.0
346,33.0
347,28.0
348,24.0
349,24.0
350,25.0
351,27.0
352,28.0
353,27.0
354,28.0
355,29.0
356,27.0
357,28.0
358,31.0
359,32.0
360,32.0
361,33.0
362,29.0
363,30.0
364,27.0
365,22.0
366,24.0
367,25.0
368,27.0
369,29.0
370,29.0
371,26.0
372,29.0
373,22.0
374,22.0
375,26.0
376,27.0
377,24.0
378,27.0
379,27.0
380,22.0
381,22.0
382,24.0
383,26.0
384,30.0
385,29.0
386,28.0
387,30.0
388,29.0
389,27.0
390,21.0
391,18.0
392,19.0
393,32.0
394,33.0
395,29.0
396,25.0
397,23.0
398,32.0
399,32.0
400,28.0
401,27.0
402,25.0
403,25.0
404,21.0
405,16.0
406,13.0
407,20.0
408,23.0
409,27.0
410,26.0
411,21.0
412,25.0
413,31.0
414,29.0
415,28.0
416,26.0
417,25.0
418,24.0
419,24.0
420,25.0
421,27.0
422,29.0
423,26.0
424,28.0
425,32.0
426,28.0
427,23.0
428,27.0
429,26.0
430,23.0
431,26.0
432,26.0
433,24.0
434,24.0
435,24.0
436,22.0
437,23.0
438,24.0
439,26.0
440,26.0
441,28.0
442,26.0
443,30.0
444,27.0
445,23.0
446,22.0
447,21.0
448,24.0
449,23.0
450,23.0
451,20.0
452,21.0
453,22.0
454,22.0
455,31.0
456,31.0
457,26.0
458,25.0
459,22.0
460,20.0
461,22.0
462,23.0
463,22.0
464,23.0
465,24.0
466,27.0
467,25.0
468,28.0
469,29.0
470,30.0
471,29.0
472,27.0
473,25.0
474,28.0
475,28.0
476,29.0
477,31.0
478,29.0
479,31.0
480,33.0
481,29.0
482,25.0
483,23.0
484,24.0
485,26.0
486,27.0
487,27.0
488,26.0
489,18.0
490,15.0
491,21.0
492,26.0
493,24.0
494,23.0
495,25.0
496,21.0
497,17.0
498,20.0
499,16.0
500,13.0
501,17.0
502,21.0
503,19.0
504,21.0
505,19.0
506,19.0
507,21.0
508,20.0
509,19.0
510,17.0
511,20.0
512,23.0
513,21.0
514,18.0
515,20.0
516,23.0
517,20.0
518,20.0
519,22.0
520,22.0
521,28.0
522,24.0
523,27.0
524,25.0
525,23.0
526,24.0
527,21.0
528,21.0
529,26.0
530,27.0
531,29.0
532,29.0
533,34.0
534,34.0
535,33.0
536,30.0
537,23.0
538,19.0
539,23.0
540,22.0
541,22.0
542,22.0
543,25.0
544,25.0
545,25.0
546,25.0
547,28.0
548,28.0
549,26.0
550,26.0
551,27.0
552,27.0
553,27.0
554,25.0
555,26.0
556,28.0
557,24.0
558,28.0
559,28.0
560,28.0
561,29.0
562,28.0
563,28.0
564,27.0
565,28.0
566,28.0
567,28.0
568,26.0
569,27.0
570,26.0
571,26.0
572,22.0
573,23.0
574,27.0
575,26.0
576,28.0
577,29.0
578,29.0
579,25.0
580,25.0
581,29.0
582,27.0
583,27.0
584,25.0
585,23.0
586,23.0
587,24.0
588,29.0
589,29.0
590,31.0
591,32.0
592,30.0
593,26.0
594,24.0
595,27.0
596,25.0
597,29.0
598,33.0
599,30.0
600,29.0
601,28.0
602,30.0
603,30.0
604,29.0
605,31.0
606,29.0
607,29.0
608,26.0
609,28.0
610,25.0
611,25.0
612,23.0
613,25.0
614,30.0
615,33.0
616,31.0
617,27.0
618,26.0
619,29.0
620,32.0
621,31.0
622,30.0
623,28.0
624,26.0
625,31.0
626,30.0
627,31.0
628,37.0
629,40.0
630,37.0
631,33.0
632,30.0
633,27.0
634,30.0
635,31.0
636,32.0
637,33.0
638,30.0
639,28.0
640,33.0
641,33.0
642,31.0
643,27.0
644,24.0
645,25.0
646,31.0
647,33.0
648,32.0
649,30.0
650,29.0
651,32.0
652,36.0
653,34.0
654,31.0
655,32.0
656,38.0
657,40.0
658,32.0
659,31.0
660,32.0
661,31.0
662,28.0
663,27.0
664,31.0
665,35.0
666,31.0
667,27.0
668,27.0
669,25.0
670,25.0
671,30.0
672,35.0
673,35.0
674,30.0
675,29.0
676,30.0
677,30.0
678,28.0
679,31.0
680,33.0
681,32.0
682,33.0
683,34.0
684,31.0
685,32.0
686,34.0
687,32.0
688,31.0
689,30.0
690,32.0
691,26.0
692,23.0
693,24.0
694,29.0
695,26.0
696,24.0
697,23.0
698,24.0
699,30.0
700,32.0
701,31.0
702,31.0
703,30.0
704,29.0
705,25.0
706,27.0
707,25.0
708,25.0
709,25.0
710,29.0
711,32.0
712,32.0
713,29.0
714,28.0
715,27.0
716,26.0
717,23.0
718,22.0
719,25.0
720,25.0
721,21.0
722,24.0
723,24.0
724,27.0
725,25.0
726,23.0
727,24.0
728,26.0
729,26.0
730,26.0
731,24.0
732,23.0
733,21.0
734,18.0
735,22.0
736,30.0
737,32.0
738,30.0
739,24.0
740,23.0
741,25.0
742,19.0
743,26.0
744,30.0
745,28.0
746,24.0
747,31.0
748,38.0
749,34.0
750,31.0
751,27.0
752,23.0
753,23.0
754,24.0
755,25.0
756,29.0
757,29.0
758,25.0
759,30.0
760,29.0
761,26.0
762,30.0
763,31.0
764,31.0
765,26.0
766,27.0
767,27.0
768,26.0
769,26.0
770,23.0
771,21.0
772,27.0
773,26.0
774,21.0
775,19.0
776,20.0
777,28.0
778,33.0
779,29.0
780,27.0
781,26.0
782,27.0
783,27.0
784,26.0
785,24.0
786,27.0
787,28.0
788,30.0
789,30.0
790,25.0
791,21.0
792,21.0
793,30.0
794,31.0
795,27.0
796,31.0
797,26.0
798,19.0
799,20.0
800,26.0
801,30.0
802,29.0
803,27.0
804,25.0
805,28.0
806,26.0
807,25.0
808,25.0
809,29.0
810,31.0
811,29.0
812,26.0
813,26.0
814,29.0
815,31.0
816,31.0
817,31.0
818,28.0
819,31.0
820,31.0
821,31.0
822,30.0
823,35.0
824,34.0
825,30.0
826,27.0
827,16.0
828,22.0
829,25.0
830,26.0
831,27.0
832,29.0
833,34.0
834,32.0
835,30.0
836,29.0
837,28.0
838,32.0
839,31.0
840,28.0
841,26.0
842,24.0
843,23.0
844,21.0
845,24.0
846,22.0
847,27.0
848,26.0
849,26.0
850,27.0
851,26.0
852,23.0
853,26.0
854,29.0
855,26.0
856,25.0
857,29.0
858,27.0
859,26.0
860,21.0
861,26.0
862,29.0
863,27.0
864,26.0
865,24.0
866,20.0
867,21.0
868,23.0
869,28.0
870,28.0
871,26.0
872,27.0
873,28.0
874,28.0
875,26.0
876,28.0
877,28.0
878,25.0
879,27.0
880,28.0
881,27.0
882,24.0
883,27.0
884,29.0
885,28.0
886,29.0
887,27.0
888,25.0
889,28.0
890,26.0
891,28.0
892,24.0
893,24.0
894,21.0
895,19.0
896,21.0
897,26.0
898,30.0
899,35.0
900,31.0
901,24.0
902,26.0
903,25.0
904,27.0
905,25.0
906,28.0
907,29.0
908,28.0
909,28.0
910,27.0
911,30.0
912,26.0
913,28.0
914,26.0
915,22.0
916,22.0
917,22.0
918,25.0
919,27.0
920,24.0
921,24.0
922,26.0
923,27.0
924,27.0
925,26.0
926,26.0
927,27.0
928,29.0
929,27.0
930,24.0
931,21.0
932,18.0
933,16.0
934,22.0
935,28.0
936,28.0
937,30.0
938,27.0
939,29.0
940,30.0
941,28.0
942,26.0
943,27.0
944,25.0
945,23.0
946,19.0
947,13.0
948,16.0
949,20.0
950,19.0
951,17.0
952,16.0
953,22.0
954,21.0
955,23.0
956,22.0
957,24.0
958,23.0
959,20.0
960,21.0
961,21.0
962,20.0
963,20.0
964,21.0
965,26.0
966,30.0
967,28.0
968,26.0
969,24.0
970,22.0
971,21.0
972,25.0
973,26.0
974,23.0
975,23.0
976,23.0
977,26.0
978,29.0
979,29.0
980,26.0
981,26.0
982,27.0
983,33.0
984,35.0
985,35.0
986,36.0
987,30.0
988,24.0
989,22.0
990,24.0
991,21.0
992,26.0
993,29.0
994,30.0
995,24.0
996,21.0
997,25.0
998,23.0
999,20.0
1000,27.0
1001,29.0
1002,27.0
1003,26.0
1004,27.0
1005,26.0
1006,27.0
1007,26.0
1008,25.0
1009,24.0
1010,26.0
1011,27.0
1012,28.0
1013,30.0
1014,30.0
1015,26.0
1016,25.0
1017,27.0
1018,24.0
1019,24.0
1020,30.0
1021,30.0
1022,34.0
1023,28.0
1024,26.0
1025,26.0
1026,30.0
1027,32.0
1028,34.0
1029,28.0
1030,24.0
1031,22.0
1032,25.0
1033,25.0
1034,25.0
1035,26.0
1036,33.0
1037,35.0
1038,30.0
1039,27.0
1040,26.0
1041,25.0
1042,29.0
1043,34.0
1044,30.0
1045,28.0
1046,30.0
1047,30.0
1048,25.0
1049,27.0
1050,28.0
1051,26.0
1052,25.0
1053,27.0
1054,27.0
1055,25.0
1056,31.0
1057,34.0
1058,29.0
1059,30.0
1060,31.0
1061,30.0
1062,28.0
1063,28.0
1064,30.0
1065,26.0
1066,25.0
1067,33.0
1068,34.0
1069,31.0
1070,30.0
1071,32.0
1072,34.0
1073,31.0
1074,27.0
1075,25.0
1076,26.0
1077,28.0
1078,29.0
1079,30.0
1080,32.0
1081,30.0
1082,30.0
1083,33.0
1084,30.0
1085,30.0
1086,30.0
1087,28.0
1088,31.0
1089,36.0
1090,34.0
1091,32.0
1092,30.0
1093,29.0
1094,29.0
1095,28.0
1096,29.0
1097,32.0
1098,31.0
1099,32.0
1100,36.0
1101,31.0
1102,30.0
1103,31.0
1104,33.0
1105,37.0
1106,36.0
1107,35.0
1108,33.0
1109,33.0
1110,33.0
1111,31.0
1112,29.0
1113,34.0
1114,34.0
1115,29.0
1116,31.0
1117,31.0
1118,32.0
1119,36.0
1120,35.0
1121,31.0
1122,28.0
1123,27.0
1124,29.0
1125,32.0
1126,35.0
1127,36.0
1128,27.0
1129,27.0
1130,27.0
1131,27.0
1132,25.0
1133,31.0
1134,35.0
1135,35.0
1136,32.0
1137,24.0
1138,25.0
1139,25.0
1140,21.0
1141,21.0
1142,25.0
1143,30.0
1144,23.0
1145,24.0
1146,25.0
1147,27.0
1148,30.0
1149,29.0
1150,25.0
1151,28.0
1152,27.0
1153,25.0
1154,25.0
1155,25.0
1156,26.0
1157,31.0
1158,35.0
1159,34.0
1160,31.0
1161,30.0
1162,29.0
1163,26.0
1164,23.0
1165,27.0
1166,24.0
1167,24.0
1168,26.0
1169,29.0
1170,32.0
1171,30.0
1172,30.0
1173,31.0
1174,27.0
1175,26.0
1176,30.0
1177,28.0
1178,26.0
1179,24.0
1180,20.0
1181,22.0
1182,26.0
1183,26.0
1184,25.0
1185,27.0
1186,29.0
1187,26.0
1188,29.0
1189,27.0
1190,22.0
1191,24.0
1192,24.0
1193,24.0
1194,24.0
1195,24.0
1196,27.0
1197,25.0
1198,27.0
1199,27.0
1200,20.0
1201,20.0
1202,28.0
1203,30.0
1204,27.0
1205,29.0
1206,29.0
1207,22.0
1208,24.0
1209,28.0
1210,25.0
1211,27.0
1212,26.0
1213,28.0
1214,30.0
1215,31.0
1216,33.0
1217,31.0
1218,26.0
1219,25.0
1220,24.0
1221,26.0
1222,25.0
1223,24.0
1224,26.0
1225,28.0
1226,30.0
1227,28.0
1228,28.0
1229,31.0
1230,26.0
1231,27.0
1232,27.0
1233,25.0
1234,20.0
1235,22.0
1236,23.0
1237,24.0
1238,32.0
1239,35.0
1240,32.0
1241,30.0
1242,32.0
1243,24.0
1244,19.0
1245,27.0
1246,28.0
1247,26.0
1248,25.0
1249,26.0
1250,29.0
1251,34.0
1252,33.0
1253,31.0
1254,33.0
1255,29.0
1256,27.0
1257,28.0
1258,26.0
1259,27.0
1260,28.0
1261,28.0
1262,30.0
1263,27.0
1264,26.0
1265,26.0
1266,28.0
1267,27.0
1268,25.0
1269,26.0
1270,27.0
1271,27.0
1272,30.0
1273,31.0
1274,29.0
1275,31.0
1276,32.0
1277,29.0
1278,31.0
1279,33.0
1280,30.0
1281,27.0
1282,26.0
1283,24.0
1284,25.0
1285,25.0
1286,25.0
1287,26.0
1288,26.0
1289,29.0
1290,29.0
1291,27.0
1292,25.0
1293,28.0
1294,33.0
1295,29.0
1296,28.0
1297,29.0
1298,28.0
1299,27.0
1300,29.0
1301,29.0
1302,26.0
1303,25.0
1304,29.0
1305,25.0
1306,25.0
1307,24.0
1308,26.0
1309,26.0
1310,25.0
1311,22.0
1312,27.0
1313,31.0
1314,28.0
1315,29.0
1316,29.0
1317,30.0
1318,29.0
1319,30.0
1320,27.0
1321,28.0
1322,26.0
1323,27.0
1324,28.0
1325,27.0
1326,26.0
1327,27.0
1328,24.0
1329,26.0
1330,31.0
1331,28.0
1332,22.0
1333,21.0
1334,26.0
1335,29.0
1336,32.0
1337,30.0
1338,26.0
1339,22.0
1340,26.0
1341,23.0
1342,24.0
1343,27.0
1344,25.0
1345,27.0
1346,29.0
1347,28.0
1348,19.0
1349,22.0
1350,27.0
1351,31.0
1352,28.0
1353,27.0
1354,30.0
1355,30.0
1356,25.0
1357,20.0
1358,19.0
1359,23.0
1360,28.0
1361,29.0
1362,32.0
1363,32.0
1364,31.0
1365,29.0
1366,25.0
1367,25.0
1368,27.0
1369,29.0
1370,31.0
1371,30.0
1372,28.0
1373,33.0
1374,32.0
1375,32.0
1376,29.0
1377,27.0
1378,24.0
1379,26.0
1380,31.0
1381,30.0
1382,24.0
1383,21.0
1384,20.0
1385,23.0
1386,20.0
1387,17.0
1388,16.0
1389,14.0
1390,23.0
1391,27.0
1392,24.0
1393,21.0
1394,23.0
1395,22.0
1396,16.0
1397,16.0
1398,18.0
1399,16.0
1400,16.0
1401,20.0
1402,19.0
1403,24.0
1404,25.0
1405,26.0
1406,25.0
1407,22.0
1408,24.0
1409,26.0
1410,27.0
1411,28.0
1412,28.0
1413,26.0
1414,27.0
1415,27.0
1416,30.0
1417,32.0
1418,31.0
1419,29.0
1420,26.0
1421,22.0
1422,25.0
1423,27.0
1424,27.0
1425,25.0
1426,28.0
1427,26.0
1428,26.0
1429,26.0
1430,25.0
1431,28.0
1432,35.0
1433,38.0
1434,31.0
1435,26.0
1436,29.0
1437,29.0
1438,27.0
1439,26.0
1440,25.0
1441,29.0
1442,31.0
1443,29.0
1444,31.0
1445,32.0
1446,30.0
1447,29.0
1448,31.0
1449,34.0
1450,31.0
1451,29.0
1452,24.0
1453,25.0
1454,25.0
1455,24.0
1456,26.0
1457,26.0
1458,24.0
1459,23.0
1460,24.0
1461,26.0
1462,27.0
1463,31.0
1464,29.0
1465,25.0
1466,21.0
1467,21.0
1468,24.0
1469,28.0
1470,31.0
1471,36.0
1472,34.0
1473,31.0
1474,28.0
1475,25.0
1476,23.0
1477,25.0
1478,29.0
1479,32.0
1480,29.0
1481,25.0
1482,25.0
1483,27.0
1484,28.0
1485,31.0
1486,33.0
1487,33.0
1488,29.0
1489,25.0
1490,28.0
1491,31.0
1492,35.0
1493,34.0
1494,32.0
1495,30.0
1496,29.0
1497,26.0
1498,27.0
1499,32.0
1500,32.0
1501,30.0
1502,31.0
1503,30.0
1504,29.0
1505,25.0
1506,27.0
1507,29.0
1508,32.0
1509,38.0
1510,35.0
1511,32.0
1512,28.0
1513,28.0
1514,28.0
1515,27.0
1516,27.0
1517,31.0
1518,31.0
1519,31.0
1520,31.0
1521,33.0
1522,34.0
1523,32.0
1524,31.0
1525,32.0
1526,28.0
1527,29.0
1528,38.0
1529,38.0
1530,38.0
1531,30.0
1532,30.0
1533,33.0
1534,33.0
1535,29.0
1536,29.0
1537,30.0
1538,32.0
1539,36.0
1540,34.0
1541,32.0
1542,33.0
1543,31.0
1544,33.0
1545,37.0
1546,34.0
1547,34.0
1548,35.0
1549,31.0
1550,31.0
1551,36.0
1552,35.0
1553,32.0
1554,30.0
1555,31.0
1556,27.0
1557,26.0
1558,32.0
1559,35.0
1560,34.0
1561,33.0
1562,35.0
1563,30.0
1564,32.0
1565,35.0
1566,38.0
1567,36.0
1568,30.0
1569,28.0
1570,27.0
1571,28.0
1572,29.0
1573,29.0
1574,26.0
1575,29.0
1576,31.0
1577,29.0
1578,26.0
1579,25.0
1580,30.0
1581,32.0
1582,31.0
1583,32.0
1584,27.0
1585,30.0
1586,33.0
1587,34.0
1588,31.0
1589,27.0
1590,25.0
1591,26.0
1592,28.0
1593,33.0
1594,29.0
1595,29.0
1596,29.0
1597,27.0
1598,26.0
1599,31.0
1600,29.0
1601,26.0
1602,26.0
1603,27.0
1604,26.0
1605,27.0
1606,29.0
1607,31.0
1608,31.0
1609,29.0
1610,26.0
1611,24.0
1612,26.0
1613,25.0
1614,25.0
1615,27.0
1616,27.0
1617,26.0
1618,23.0
1619,24.0
1620,28.0
1621,31.0
1622,26.0
1623,24.0
1624,22.0
1625,26.0
1626,30.0
1627,28.0
1628,26.0
1629,27.0
1630,27.0
1631,29.0
1632,31.0
1633,28.0
1634,29.0
1635,28.0
1636,27.0
1637,26.0
1638,26.0
1639,24.0
1640,21.0
1641,25.0
1642,27.0
1643,30.0
1644,30.0
1645,31.0
1646,32.0
1647,34.0
1648,31.0
1649,29.0
1650,25.0
1651,21.0
1652,28.0
1653,29.0
1654,27.0
1655,25.0
1656,23.0
1657,25.0
1658,30.0
1659,29.0
1660,27.0
1661,27.0
1662,24.0
1663,23.0
1664,23.0
1665,26.0
1666,26.0
1667,28.0
1668,27.0
1669,28.0
1670,28.0
1671,26.0
1672,28.0
1673,30.0
1674,29.0
1675,25.0
1676,30.0
1677,30.0
1678,23.0
1679,23.0
1680,26.0
1681,27.0
1682,26.0
1683,29.0
1684,26.0
1685,25.0
1686,26.0
1687,23.0
1688,25.0
1689,21.0
1690,28.0
1691,30.0
1692,27.0
1693,28.0
1694,28.0
1695,28.0
1696,30.0
1697,31.0
1698,32.0
1699,32.0
1700,31.0
1701,31.0
1702,32.0
1703,35.0
1704,32.0
1705,27.0
1706,25.0
1707,26.0
1708,27.0
1709,26.0
1710,27.0
1711,25.0
1712,29.0
1713,28.0
1714,26.0
1715,28.0
1716,28.0
1717,31.0
1718,29.0
1719,28.0
1720,31.0
1721,32.0
1722,28.0
1723,27.0
1724,30.0
1725,30.0
1726,31.0
1727,31.0
1728,27.0
1729,28.0
1730,30.0
1731,30.0
1732,29.0
1733,31.0
1734,32.0
1735,28.0
1736,27.0
1737,26.0
1738,26.0
1739,28.0
1740,28.0
1741,27.0
1742,26.0
1743,26.0
1744,25.0
1745,24.0
1746,24.0
1747,21.0
1748,21.0
1749,22.0
1750,20.0
1751,25.0
1752,31.0
1753,30.0
1754,25.0
1755,28.0
1756,27.0
1757,26.0
1758,30.0
1759,27.0
1760,22.0
1761,27.0
1762,28.0
1763,32.0
1764,35.0
1765,34.0
1766,30.0
1767,31.0
1768,29.0
1769,23.0
1770,21.0
1771,23.0
1772,21.0
1773,20.0
1774,26.0
1775,23.0
1776,26.0
1777,30.0
1778,33.0
1779,32.0
1780,30.0
1781,30.0
1782,29.0
1783,23.0
1784,28.0
1785,32.0
1786,29.0
1787,26.0
1788,24.0
1789,25.0
1790,26.0
1791,26.0
1792,27.0
1793,29.0
1794,24.0
1795,23.0
1796,24.0
1797,27.0
1798,29.0
1799,30.0
1800,25.0
1801,26.0
1802,27.0
1803,27.0
1804,29.0
1805,27.0
1806,24.0
1807,26.0
1808,29.0
1809,27.0
1810,28.0
1811,22.0
1812,25.0
1813,26.0
1814,25.0
1815,26.0
1816,25.0
1817,23.0
1818,25.0
1819,28.0
1820,32.0
1821,36.0
1822,37.0
1823,30.0
1824,27.0
1825,27.0
1826,34.0
1827,32.0
1828,28.0
1829,28.0
1830,29.0
1831,27.0
1832,27.0
1833,26.0
1834,31.0
1835,30.0
1836,24.0
1837,21.0
1838,18.0
1839,18.0
1840,20.0
1841,20.0
1842,25.0
1843,25.0
1844,22.0
1845,22.0
1846,20.0
1847,24.0
1848,29.0
1849,26.0
1850,21.0
1851,20.0
1852,23.0
1853,24.0
1854,25.0
1855,23.0
1856,22.0
1857,20.0
1858,16.0
1859,19.0
1860,23.0
1861,25.0
1862,31.0
1863,35.0
1864,32.0
1865,29.0
1866,26.0
1867,27.0
1868,28.0
1869,28.0
1870,30.0
1871,32.0
1872,30.0
1873,29.0
1874,26.0
1875,26.0
1876,26.0
1877,28.0
1878,27.0
1879,25.0
1880,26.0
1881,22.0
1882,25.0
1883,28.0
1884,29.0
1885,29.0
1886,29.0
1887,30.0
1888,29.0
1889,26.0
1890,22.0
1891,27.0
1892,30.0
1893,29.0
1894,21.0
1895,20.0
1896,28.0
1897,29.0
1898,32.0
1899,29.0
1900,27.0
1901,25.0
1902,28.0
1903,29.0
1904,31.0
1905,29.0
1906,29.0
1907,30.0
1908,27.0
1909,26.0
1910,28.0
1911,27.0
1912,23.0
1913,34.0
1914,39.0
1915,37.0
1916,34.0
1917,31.0
1918,31.0
1919,30.0
1920,29.0
1921,26.0
1922,28.0
1923,27.0
1924,21.0
1925,21.0
1926,23.0
1927,29.0
1928,34.0
1929,35.0
1930,34.0
1931,33.0
1932,31.0
1933,32.0
1934,35.0
1935,33.0
1936,30.0
1937,26.0
1938,23.0
1939,23.0
1940,23.0
1941,25.0
1942,27.0
1943,29.0
1944,31.0
1945,31.0
1946,30.0
1947,30.0
1948,31.0
1949,31.0
1950,31.0
1951,31.0
1952,31.0
1953,29.0
1954,30.0
1955,30.0
1956,28.0
1957,31.0
1958,31.0
1959,32.0
1960,34.0
1961,32.0
1962,29.0
1963,27.0
1964,25.0
1965,26.0
1966,27.0
1967,29.0
1968,33.0
1969,34.0
1970,37.0
1971,37.0
1972,38.0
1973,37.0
1974,38.0
1975,39.0
1976,36.0
1977,34.0
1978,29.0
1979,29.0
1980,26.0
1981,24.0
1982,24.0
1983,34.0
1984,33.0
1985,33.0
1986,34.0
1987,36.0
1988,37.0
1989,36.0
1990,33.0
1991,33.0
1992,28.0
1993,31.0
1994,36.0
1995,34.0
1996,35.0
1997,35.0
1998,34.0
1999,33.0
2000,31.0
2001,27.0
2002,31.0
2003,32.0
2004,32.0
2005,31.0
2006,32.0
2007,35.0
2008,36.0
2009,36.0
2010,36.0
2011,36.0
2012,37.0
2013,40.0
2014,35.0
2015,30.0
2016,30.0
2017,29.0
2018,30.0
2019,28.0
2020,26.0
2021,24.0
2022,22.0
2023,22.0
2024,27.0
2025,35.0
2026,36.0
2027,34.0
2028,37.0
2029,36.0
2030,31.0
2031,33.0
2032,33.0
2033,34.0
2034,34.0
2035,34.0
2036,34.0
2037,30.0
2038,31.0
2039,25.0
2040,20.0
2041,25.0
2042,37.0
2043,36.0
2044,31.0
2045,29.0
2046,29.0
2047,31.0
2048,33.0
2049,29.0
2050,30.0
2051,32.0
2052,31.0
2053,31.0
2054,29.0
2055,27.0
2056,29.0
2057,26.0
2058,23.0
2059,24.0
2060,27.0
2061,27.0
2062,28.0
2063,27.0
2064,32.0
2065,32.0
2066,29.0
2067,28.0
2068,31.0
2069,32.0
2070,32.0
2071,27.0
2072,28.0
2073,28.0
2074,30.0
2075,31.0
2076,30.0
2077,29.0
2078,29.0
2079,26.0
2080,23.0
2081,22.0
2082,21.0
2083,19.0
2084,17.0
2085,22.0
2086,27.0
2087,23.0
2088,27.0
2089,38.0
2090,37.0
2091,34.0
2092,33.0
2093,34.0
2094,29.0
2095,27.0
2096,27.0
2097,25.0
2098,26.0
2099,26.0
2100,27.0
2101,29.0
2102,30.0
2103,32.0
2104,32.0
2105,30.0
2106,30.0
2107,34.0
2108,31.0
2109,29.0
2110,30.0
2111,26.0
2112,24.0
2113,25.0
2114,30.0
2115,30.0
2116,28.0
2117,28.0
2118,29.0
2119,29.0
2120,31.0
2121,33.0
2122,31.0
2123,29.0
2124,28.0
2125,26.0
2126,26.0
2127,24.0
2128,27.0
2129,28.0
2130,28.0
2131,28.0
2132,23.0
2133,23.0
2134,25.0
2135,27.0
2136,31.0
2137,28.0
2138,29.0
2139,28.0
2140,26.0
2141,35.0
2142,32.0
2143,25.0
2144,23.0
2145,29.0
2146,28.0
2147,32.0
2148,33.0
2149,35.0
2150,36.0
2151,35.0
2152,34.0
2153,34.0
2154,33.0
2155,26.0
2156,29.0
2157,29.0
2158,27.0
2159,30.0
2160,34.0
2161,36.0
2162,31.0
2163,31.0
2164,32.0
2165,27.0
2166,24.0
2167,28.0
2168,29.0
2169,28.0
2170,26.0
2171,28.0
2172,33.0
2173,36.0
2174,35.0
2175,37.0
2176,33.0
2177,31.0
2178,28.0
2179,22.0
2180,17.0
2181,18.0
2182,25.0
2183,25.0
2184,27.0
2185,33.0
2186,28.0
2187,30.0
2188,31.0
2189,28.0
2190,30.0
2191,31.0
2192,27.0
2193,25.0
2194,25.0
2195,27.0
2196,30.0
2197,35.0
2198,36.0
2199,35.0
2200,35.0
2201,33.0
2202,26.0
2203,21.0
2204,23.0
2205,30.0
2206,30.0
2207,33.0
2208,29.0
2209,25.0
2210,24.0
2211,28.0
2212,32.0
2213,33.0
2214,30.0
2215,25.0
2216,31.0
2217,33.0
2218,29.0
2219,30.0
2220,30.0
2221,27.0
2222,33.0
2223,33.0
2224,35.0
2225,31.0
2226,29.0
2227,27.0
2228,25.0
2229,27.0
2230,23.0
2231,21.0
2232,21.0
2233,26.0
2234,31.0
2235,33.0
2236,33.0
2237,30.0
2238,23.0
2239,28.0
2240,31.0
2241,29.0
2242,31.0
2243,29.0
2244,28.0
2245,25.0
2246,23.0
2247,23.0
2248,23.0
2249,26.0
2250,26.0
2251,25.0
2252,23.0
2253,25.0
2254,29.0
2255,32.0
2256,33.0
2257,32.0
2258,28.0
2259,29.0
2260,28.0
2261,27.0
2262,30.0
2263,29.0
2264,30.0
2265,34.0
2266,29.0
2267,28.0
2268,28.0
2269,31.0
2270,34.0
2271,35.0
2272,31.0
2273,29.0
2274,33.0
2275,32.0
2276,27.0
2277,27.0
2278,31.0
2279,28.0
2280,31.0
2281,32.0
2282,31.0
2283,34.0
2284,33.0
2285,32.0
2286,32.0
2287,29.0
2288,29.0
2289,29.0
2290,28.0
2291,25.0
2292,23.0
2293,23.0
2294,25.0
2295,28.0
2296,23.0
2297,23.0
2298,26.0
2299,26.0
2300,21.0
2301,23.0
2302,23.0
2303,20.0
2304,19.0
2305,23.0
2306,21.0
2307,22.0
2308,26.0
2309,31.0
2310,31.0
2311,30.0
2312,31.0
2313,32.0
2314,29.0
2315,29.0
2316,26.0
2317,26.0
2318,30.0
2319,30.0
2320,28.0
2321,29.0
2322,28.0
2323,26.0
2324,29.0
2325,27.0
2326,29.0
2327,25.0
2328,29.0
2329,31.0
2330,34.0
2331,37.0
2332,35.0
2333,34.0
2334,32.0
2335,31.0
2336,30.0
2337,25.0
2338,24.0
2339,24.0
2340,24.0
2341,24.0
2342,28.0
2343,33.0
2344,32.0
2345,35.0
2346,33.0
2347,28.0
2348,25.0
2349,30.0
2350,30.0
2351,30.0
2352,32.0
2353,32.0
2354,30.0
2355,29.0
2356,34.0
2357,32.0
2358,27.0
2359,26.0
2360,26.0
2361,30.0
2362,32.0
2363,34.0
2364,33.0
2365,29.0
2366,26.0
2367,31.0
2368,34.0
2369,32.0
2370,28.0
2371,30.0
2372,33.0
2373,33.0
2374,32.0
2375,30.0
2376,28.0
2377,29.0
2378,30.0
2379,31.0
2380,30.0
2381,29.0
2382,28.0
2383,30.0
2384,31.0
2385,25.0
2386,31.0
2387,37.0
2388,36.0
2389,36.0
2390,36.0
2391,35.0
2392,34.0
2393,33.0
2394,31.0
2395,31.0
2396,32.0
2397,30.0
2398,28.0
2399,29.0
2400,27.0
2401,25.0
2402,30.0
2403,35.0
2404,33.0
2405,34.0
2406,33.0
2407,35.0
2408,29.0
2409,27.0
2410,22.0
2411,26.0
2412,28.0
2413,31.0
2414,32.0
2415,33.0
2416,36.0
2417,37.0
2418,36.0
2419,34.0
2420,31.0
2421,28.0
2422,34.0
2423,32.0
2424,32.0
2425,36.0
2426,36.0
2427,34.0
2428,31.0
2429,32.0
2430,36.0
2431,36.0
2432,39.0
2433,43.0
2434,38.0
2435,36.0
2436,35.0
2437,33.0
2438,34.0
2439,36.0
2440,39.0
2441,38.0
2442,36.0
2443,37.0
2444,36.0
2445,40.0
2446,44.0
2447,38.0
2448,35.0
2449,34.0
2450,33.0
2451,33.0
2452,33.0
2453,32.0
2454,32.0
2455,32.0
2456,34.0
2457,33.0
2458,33.0
2459,40.0
2460,39.0
2461,35.0
2462,40.0
2463,37.0
2464,37.0
2465,36.0
2466,35.0
2467,34.0
2468,32.0
2469,33.0
2470,35.0
2471,33.0
2472,31.0
2473,33.0
2474,34.0
2475,35.0
2476,35.0
2477,28.0
2478,23.0
2479,22.0
2480,26.0
2481,31.0
2482,31.0
2483,31.0
2484,32.0
2485,33.0
2486,30.0
2487,32.0
2488,33.0
2489,35.0
2490,28.0
2491,26.0
2492,32.0
2493,35.0
2494,32.0
2495,31.0
2496,30.0
2497,33.0
2498,31.0
2499,34.0
2500,32.0
2501,31.0
2502,35.0
2503,37.0
2504,34.0
2505,32.0
2506,28.0
2507,28.0
2508,31.0
2509,34.0
2510,35.0
2511,26.0
2512,23.0
2513,28.0
2514,29.0
2515,25.0
2516,32.0
2517,37.0
2518,31.0
2519,31.0
2520,29.0
2521,27.0
2522,29.0
2523,28.0
2524,32.0
2525,32.0
2526,33.0
2527,31.0
2528,28.0
2529,28.0
2530,30.0
2531,29.0
2532,29.0
2533,27.0
2534,24.0
2535,25.0
2536,22.0
2537,23.0
2538,29.0
2539,26.0
2540,27.0
2541,30.0
2542,30.0
2543,28.0
2544,29.0
2545,27.0
2546,32.0
2547,32.0
2548,29.0
2549,30.0
2550,27.0
2551,31.0
2552,33.0
2553,33.0
2554,34.0
2555,31.0
2556,31.0
2557,34.0
2558,30.0
2559,30.0
2560,28.0
2561,27.0
2562,22.0
2563,23.0
2564,28.0
2565,31.0
2566,34.0
2567,37.0
2568,36.0
2569,37.0
2570,37.0
2571,32.0
2572,28.0
2573,32.0
2574,30.0
2575,28.0
2576,29.0
2577,29.0
2578,31.0
2579,32.0
2580,30.0
2581,31.0
2582,33.0
2583,30.0
2584,31.0
2585,29.0
2586,29.0
2587,29.0
2588,28.0
2589,29.0
2590,28.0
2591,27.0
2592,27.0
2593,28.0
2594,27.0
2595,26.0
2596,27.0
2597,29.0
2598,30.0
2599,30.0
2600,28.0
2601,27.0
2602,29.0
2603,30.0
2604,30.0
2605,29.0
2606,28.0
2607,26.0
2608,27.0
2609,26.0
2610,27.0
2611,24.0
2612,26.0
2613,31.0
2614,31.0
2615,34.0
2616,35.0
2617,34.0
2618,32.0
2619,31.0
2620,28.0
2621,32.0
2622,38.0
2623,35.0
2624,31.0
2625,32.0
2626,33.0
2627,32.0
2628,30.0
2629,29.0
2630,31.0
2631,30.0
2632,33.0
2633,34.0
2634,37.0
2635,37.0
2636,36.0
2637,34.0
2638,31.0
2639,29.0
2640,31.0
2641,32.0
2642,33.0
2643,30.0
2644,26.0
2645,30.0
2646,34.0
2647,35.0
2648,28.0
2649,28.0
2650,30.0
2651,30.0
2652,27.0
2653,27.0
2654,27.0
2655,28.0
2656,34.0
2657,38.0
2658,35.0
2659,34.0
2660,34.0
2661,30.0
2662,27.0
2663,28.0
2664,24.0
2665,23.0
2666,23.0
2667,31.0
2668,35.0
2669,27.0
2670,31.0
2671,40.0
2672,38.0
2673,37.0
2674,33.0
2675,32.0
2676,36.0
2677,34.0
2678,30.0
2679,30.0
2680,25.0
2681,24.0
2682,33.0
2683,31.0
2684,26.0
2685,29.0
2686,34.0
2687,35.0
2688,36.0
2689,35.0
2690,33.0
2691,30.0
2692,26.0
2693,24.0
2694,27.0
2695,28.0
2696,30.0
2697,32.0
2698,31.0
2699,31.0
2700,32.0
2701,36.0
2702,33.0
2703,28.0
2704,28.0
2705,28.0
2706,26.0
2707,26.0
2708,30.0
2709,29.0
2710,26.0
2711,27.0
2712,26.0
2713,27.0
2714,31.0
2715,29.0
2716,30.0
2717,30.0
2718,29.0
2719,29.0
2720,30.0
2721,26.0
2722,24.0
2723,23.0
2724,28.0
2725,34.0
2726,33.0
2727,36.0
2728,38.0
2729,38.0
2730,37.0
2731,34.0
2732,29.0
2733,28.0
2734,29.0
2735,28.0
2736,26.0
2737,22.0
2738,22.0
2739,21.0
2740,21.0
2741,21.0
2742,23.0
2743,26.0
2744,32.0
2745,39.0
2746,38.0
2747,38.0
2748,32.0
2749,33.0
2750,33.0
2751,32.0
2752,34.0
2753,38.0
2754,41.0
2755,36.0
2756,31.0
2757,37.0
2758,42.0
2759,40.0
2760,35.0
2761,34.0
2762,33.0
2763,33.0
2764,32.0
2765,30.0
2766,30.0
2767,31.0
2768,29.0
2769,34.0
2770,37.0
2771,37.0
2772,34.0
2773,31.0
2774,33.0
2775,30.0
2776,26.0
2777,24.0
2778,25.0
2779,27.0
2780,28.0
2781,30.0
2782,27.0
2783,28.0
2784,27.0
2785,23.0
2786,21.0
2787,20.0
2788,18.0
2789,21.0
2790,25.0
2791,23.0
2792,22.0
2793,22.0
2794,22.0
2795,30.0
2796,32.0
2797,31.0
2798,31.0
2799,31.0
2800,30.0
2801,30.0
2802,32.0
2803,32.0
2804,33.0
2805,34.0
2806,35.0
2807,36.0
2808,38.0
2809,35.0
2810,32.0
2811,32.0
2812,31.0
2813,29.0
2814,30.0
2815,28.0
2816,28.0
2817,31.0
2818,32.0
2819,32.0
2820,26.0
2821,25.0
2822,26.0
2823,34.0
2824,36.0
2825,37.0
2826,38.0
2827,43.0
2828,37.0
2829,31.0
2830,30.0
2831,30.0
2832,33.0
2833,33.0
2834,34.0
2835,35.0
2836,34.0
2837,36.0
2838,30.0
2839,30.0
2840,33.0
2841,36.0
2842,34.0
2843,33.0
2844,29.0
2845,28.0
2846,28.0
2847,28.0
2848,28.0
2849,32.0
2850,32.0
2851,31.0
2852,32.0
2853,34.0
2854,34.0
2855,29.0
2856,23.0
2857,28.0
2858,33.0
2859,36.0
2860,34.0
2861,32.0
2862,29.0
2863,33.0
2864,35.0
2865,40.0
2866,40.0
2867,35.0
2868,35.0
2869,34.0
2870,31.0
2871,29.0
2872,32.0
2873,33.0
2874,34.0
2875,32.0
2876,34.0
2877,31.0
2878,34.0
2879,39.0
2880,42.0
2881,39.0
2882,38.0
2883,35.0
2884,32.0
2885,31.0
2886,32.0
2887,33.0
2888,32.0
2889,33.0
2890,38.0
2891,36.0
2892,36.0
2893,30.0
2894,32.0
2895,33.0
2896,33.0
2897,36.0
2898,34.0
2899,32.0
2900,33.0
2901,32.0
2902,28.0
2903,31.0
2904,33.0
2905,31.0
2906,32.0
2907,33.0
2908,35.0
2909,35.0
2910,41.0
2911,40.0
2912,36.0
2913,37.0
2914,38.0
2915,41.0
2916,39.0
2917,44.0
2918,44.0
2919,43.0
2920,41.0
2921,38.0
2922,33.0
2923,34.0
2924,36.0
2925,38.0
2926,38.0
2927,39.0
2928,38.0
2929,37.0
2930,39.0
2931,39.0
2932,38.0
2933,37.0
2934,38.0
2935,37.0
2936,38.0
2937,37.0
2938,37.0
2939,37.0
2940,40.0
2941,42.0
2942,40.0
2943,40.0
2944,35.0
2945,34.0
2946,37.0
2947,38.0
2948,34.0
2949,37.0
2950,37.0
2951,37.0
2952,41.0
2953,40.0
2954,38.0
2955,36.0
2956,32.0
2957,32.0
2958,30.0
2959,32.0
2960,36.0
2961,37.0
2962,36.0
2963,34.0
2964,38.0
2965,38.0
2966,39.0
2967,39.0
2968,37.0
2969,35.0
2970,34.0
2971,33.0
2972,33.0
2973,35.0
2974,34.0
2975,34.0
2976,32.0
2977,33.0
2978,29.0
2979,29.0
2980,29.0
2981,34.0
2982,35.0
2983,32.0
2984,31.0
2985,32.0
2986,33.0
2987,31.0
2988,32.0
2989,32.0
2990,32.0
2991,35.0
2992,36.0
2993,33.0
2994,32.0
2995,32.0
2996,31.0
2997,33.0
2998,36.0
2999,35.0
3000,35.0
3001,32.0
3002,31.0
3003,30.0
3004,28.0
3005,24.0
3006,29.0
3007,37.0
3008,33.0
3009,30.0
3010,35.0
3011,41.0
3012,39.0
3013,35.0
3014,30.0
3015,29.0
3016,31.0
3017,32.0
3018,32.0
3019,33.0
3020,36.0
3021,35.0
3022,33.0
3023,26.0
3024,21.0
3025,23.0
3026,25.0
3027,29.0
3028,32.0
3029,33.0
3030,33.0
3031,30.0
3032,29.0
3033,31.0
3034,31.0
3035,33.0
3036,34.0
3037,35.0
3038,35.0
3039,39.0
3040,32.0
3041,35.0
3042,34.0
3043,32.0
3044,30.0
3045,31.0
3046,28.0
3047,29.0
3048,34.0
3049,36.0
3050,33.0
3051,29.0
3052,33.0
3053,32.0
3054,28.0
3055,31.0
3056,36.0
3057,35.0
3058,36.0
3059,34.0
3060,32.0
3061,32.0
3062,32.0
3063,34.0
3064,34.0
3065,30.0
3066,29.0
3067,29.0
3068,30.0
3069,30.0
3070,31.0
3071,35.0
3072,32.0
3073,35.0
3074,35.0
3075,32.0
3076,31.0
3077,32.0
3078,30.0
3079,34.0
3080,37.0
3081,32.0
3082,27.0
3083,26.0
3084,33.0
3085,32.0
3086,27.0
3087,30.0
3088,33.0
3089,33.0
3090,33.0
3091,32.0
3092,29.0
3093,31.0
3094,29.0
3095,30.0
3096,36.0
3097,36.0
3098,34.0
3099,29.0
3100,28.0
3101,32.0
3102,36.0
3103,33.0
3104,31.0
3105,28.0
3106,28.0
3107,32.0
3108,39.0
3109,42.0
3110,35.0
3111,32.0
3112,28.0
3113,30.0
3114,35.0
3115,35.0
3116,32.0
3117,35.0
3118,33.0
3119,26.0
3120,27.0
3121,33.0
3122,30.0
3123,32.0
3124,31.0
3125,32.0
3126,33.0
3127,32.0
3128,37.0
3129,38.0
3130,39.0
3131,37.0
3132,33.0
3133,33.0
3134,32.0
3135,32.0
3136,36.0
3137,37.0
3138,36.0
3139,36.0
3140,33.0
3141,33.0
3142,31.0
3143,31.0
3144,33.0
3145,33.0
3146,31.0
3147,34.0
3148,37.0
3149,38.0
3150,35.0
3151,33.0
3152,33.0
3153,34.0
3154,33.0
3155,32.0
3156,27.0
3157,29.0
3158,31.0
3159,31.0
3160,32.0
3161,32.0
3162,28.0
3163,30.0
3164,32.0
3165,29.0
3166,28.0
3167,28.0
3168,26.0
3169,27.0
3170,27.0
3171,32.0
3172,28.0
3173,30.0
3174,34.0
3175,39.0
3176,38.0
3177,36.0
3178,32.0
3179,34.0
3180,32.0
3181,30.0
3182,34.0
3183,31.0
3184,32.0
3185,32.0
3186,26.0
3187,25.0
3188,31.0
3189,36.0
3190,37.0
3191,33.0
3192,31.0
3193,32.0
3194,29.0
3195,27.0
3196,27.0
3197,30.0
3198,28.0
3199,29.0
3200,27.0
3201,30.0
3202,38.0
3203,42.0
3204,42.0
3205,40.0
3206,36.0
3207,33.0
3208,30.0
3209,29.0
3210,29.0
3211,29.0
3212,30.0
3213,31.0
3214,29.0
3215,31.0
3216,31.0
3217,32.0
3218,34.0
3219,33.0
3220,33.0
3221,33.0
3222,30.0
3223,30.0
3224,31.0
3225,32.0
3226,31.0
3227,33.0
3228,34.0
3229,35.0
3230,33.0
3231,34.0
3232,32.0
3233,32.0
3234,31.0
3235,32.0
3236,31.0
3237,28.0
3238,27.0
3239,25.0
3240,28.0
3241,27.0
3242,31.0
3243,37.0
3244,39.0
3245,39.0
3246,41.0
3247,40.0
3248,37.0
3249,36.0
3250,31.0
3251,29.0
3252,30.0
3253,28.0
3254,28.0
3255,32.0
3256,36.0
3257,39.0
3258,39.0
3259,35.0
3260,32.0
3261,29.0
3262,26.0
3263,22.0
3264,25.0
3265,28.0
3266,23.0
3267,23.0
3268,26.0
3269,28.0
3270,26.0
3271,25.0
3272,25.0
3273,25.0
3274,25.0
3275,24.0
3276,20.0
3277,20.0
3278,17.0
3279,22.0
3280,25.0
3281,28.0
3282,29.0
3283,32.0
3284,35.0
3285,41.0
3286,36.0
3287,34.0
3288,32.0
3289,33.0
3290,38.0
3291,38.0
3292,33.0
3293,32.0
3294,29.0
3295,30.0
3296,36.0
3297,36.0
3298,33.0
3299,36.0
3300,32.0
3301,35.0
3302,32.0
3303,29.0
3304,32.0
3305,35.0
3306,34.0
3307,32.0
3308,32.0
3309,27.0
3310,25.0
3311,28.0
3312,30.0
3313,29.0
3314,28.0
3315,29.0
3316,33.0
3317,35.0
3318,32.0
3319,30.0
3320,34.0
3321,34.0
3322,31.0
3323,30.0
3324,33.0
3325,33.0
3326,34.0
3327,33.0
3328,32.0
3329,26.0
3330,26.0
3331,28.0
3332,31.0
3333,36.0
3334,36.0
3335,30.0
3336,30.0
3337,38.0
3338,37.0
3339,38.0
3340,37.0
3341,38.0
3342,38.0
3343,39.0
3344,36.0
3345,33.0
3346,34.0
3347,37.0
3348,32.0
3349,25.0
3350,26.0
3351,33.0
3352,36.0
3353,32.0
3354,36.0
3355,44.0
3356,37.0
3357,36.0
3358,36.0
3359,37.0
3360,38.0
3361,38.0
3362,35.0
3363,33.0
3364,31.0
3365,32.0
3366,29.0
3367,19.0
3368,25.0
3369,31.0
3370,19.0
3371,22.0
3372,34.0
3373,39.0
3374,34.0
3375,37.0
3376,43.0
3377,43.0
3378,43.0
3379,39.0
3380,39.0
3381,37.0
3382,38.0
3383,36.0
3384,30.0
3385,31.0
3386,30.0
3387,35.0
3388,32.0
3389,29.0
3390,32.0
3391,35.0
3392,35.0
3393,35.0
3394,38.0
3395,40.0
3396,40.0
3397,38.0
3398,41.0
3399,41.0
3400,38.0
3401,36.0
3402,34.0
3403,34.0
3404,36.0
3405,38.0
3406,38.0
3407,38.0
3408,38.0
3409,36.0
3410,36.0
3411,33.0
3412,38.0
3413,36.0
3414,38.0
3415,34.0
3416,35.0
3417,41.0
3418,50.0
3419,47.0
3420,45.0
3421,42.0
3422,42.0
3423,48.0
3424,45.0
3425,41.0
3426,42.0
3427,39.0
3428,39.0
3429,39.0
3430,37.0
3431,31.0
3432,39.0
3433,48.0
3434,44.0
3435,41.0
3436,36.0
3437,33.0
3438,26.0
3439,23.0
3440,30.0
3441,33.0
3442,32.0
3443,31.0
3444,34.0
3445,37.0
3446,42.0
3447,40.0
3448,40.0
3449,41.0
3450,39.0
3451,38.0
3452,37.0
3453,36.0
3454,31.0
3455,28.0
3456,30.0
3457,35.0
3458,38.0
3459,44.0
3460,38.0
3461,40.0
3462,38.0
3463,36.0
3464,34.0
3465,30.0
3466,31.0
3467,33.0
3468,29.0
3469,26.0
3470,35.0
3471,34.0
3472,32.0
3473,31.0
3474,35.0
3475,37.0
3476,33.0
3477,34.0
3478,34.0
3479,37.0
3480,40.0
3481,33.0
3482,29.0
3483,28.0
3484,28.0
3485,28.0
3486,27.0
3487,28.0
3488,33.0
3489,34.0
3490,36.0
3491,36.0
3492,34.0
3493,32.0
3494,33.0
3495,30.0
3496,33.0
3497,34.0
3498,29.0
3499,24.0
3500,26.0
3501,31.0
3502,37.0
3503,36.0
3504,34.0
3505,37.0
3506,38.0
3507,35.0
3508,30.0
3509,26.0
3510,34.0
3511,35.0
3512,33.0
3513,32.0
3514,29.0
3515,37.0
3516,37.0
3517,32.0
3518,30.0
3519,28.0
3520,28.0
3521,27.0
3522,25.0
3523,27.0
3524,32.0
3525,36.0
3526,34.0
3527,32.0
3528,39.0
3529,41.0
3530,36.0
3531,31.0
3532,26.0
3533,24.0
3534,28.0
3535,33.0
3536,28.0
3537,29.0
3538,28.0
3539,26.0
3540,24.0
3541,28.0
3542,31.0
3543,36.0
3544,34.0
3545,31.0
3546,34.0
3547,37.0
3548,35.0
3549,33.0
3550,33.0
3551,35.0
3552,34.0
3553,34.0
3554,35.0
3555,32.0
3556,35.0
3557,37.0
3558,34.0
3559,33.0
3560,31.0
3561,31.0
3562,35.0
3563,34.0
3564,30.0
3565,33.0
3566,35.0
3567,32.0
3568,33.0
3569,32.0
3570,32.0
3571,31.0
3572,34.0
3573,35.0
3574,34.0
3575,34.0
3576,34.0
3577,29.0
3578,30.0
3579,30.0
3580,28.0
3581,31.0
3582,32.0
3583,36.0
3584,35.0
3585,30.0
3586,29.0
3587,29.0
3588,29.0
3589,30.0
3590,26.0
3591,31.0
3592,32.0
3593,31.0
3594,31.0
3595,31.0
3596,32.0
3597,32.0
3598,29.0
3599,34.0
3600,34.0
3601,32.0
3602,32.0
3603,32.0
3604,34.0
3605,36.0
3606,33.0
3607,34.0
3608,35.0
3609,34.0
3610,36.0
3611,31.0
3612,30.0
3613,33.0
3614,30.0
3615,33.0
3616,37.0
3617,36.0
3618,35.0
3619,36.0
3620,37.0
3621,33.0
3622,32.0
3623,32.0
3624,35.0
3625,39.0
3626,38.0
3627,37.0
3628,33.0
3629,31.0
3630,30.0
3631,31.0
3632,32.0
3633,30.0
3634,30.0
3635,38.0
3636,38.0
3637,34.0
3638,30.0
3639,32.0
3640,31.0
3641,29.0
3642,33.0
3643,33.0
3644,32.0
3645,31.0
3646,28.0
3647,30.0
3648,33.0
3649,27.0
3650,26.0
3651,30.0
3652,30.0
3653,33.0
3654,34.0
3655,33.0
3656,29.0
3657,27.0
3658,28.0
3659,31.0
3660,33.0
3661,34.0
3662,31.0
3663,31.0
3664,32.0
3665,33.0
3666,36.0
3667,37.0
3668,33.0
3669,28.0
3670,24.0
3671,27.0
3672,32.0
3673,39.0
3674,36.0
3675,31.0
3676,28.0
3677,26.0
3678,29.0
3679,36.0
3680,35.0
3681,31.0
3682,33.0
3683,31.0
3684,36.0
3685,32.0
3686,28.0
3687,30.0
3688,31.0
3689,31.0
3690,31.0
3691,33.0
3692,33.0
3693,27.0
3694,20.0
3695,22.0
3696,27.0
3697,30.0
3698,34.0
3699,35.0
3700,36.0
3701,35.0
3702,33.0
3703,36.0
3704,33.0
3705,31.0
3706,33.0
3707,35.0
3708,34.0
3709,29.0
3710,26.0
3711,25.0
3712,25.0
3713,24.0
3714,22.0
3715,22.0
3716,29.0
3717,32.0
3718,39.0
3719,43.0
3720,41.0
3721,39.0
3722,38.0
3723,34.0
3724,35.0
3725,35.0
3726,32.0
3727,34.0
3728,35.0
3729,35.0
3730,34.0
3731,35.0
3732,34.0
3733,38.0
3734,37.0
3735,34.0
3736,30.0
3737,28.0
3738,24.0
3739,24.0
3740,22.0
3741,20.0
3742,25.0
3743,25.0
3744,30.0
3745,30.0
3746,29.0
3747,25.0
3748,24.0
3749,23.0
3750,19.0
3751,23.0
3752,25.0
3753,24.0
3754,22.0
3755,23.0
3756,26.0
3757,28.0
3758,32.0
3759,34.0
3760,33.0
3761,31.0
3762,27.0
3763,27.0
3764,28.0
3765,33.0
3766,34.0
3767,32.0
3768,34.0
3769,36.0
3770,38.0
3771,35.0
3772,34.0
3773,33.0
3774,32.0
3775,32.0
3776,35.0
3777,34.0
3778,32.0
3779,32.0
3780,23.0
3781,22.0
3782,18.0
3783,29.0
3784,34.0
3785,37.0
3786,38.0
3787,38.0
3788,38.0
3789,34.0
3790,30.0
3791,26.0
3792,27.0
3793,34.0
3794,34.0
3795,38.0
3796,35.0
3797,34.0
3798,31.0
3799,34.0
3800,38.0
3801,34.0
3802,30.0
3803,33.0
3804,31.0
3805,35.0
3806,42.0
3807,36.0
3808,30.0
3809,30.0
3810,33.0
3811,35.0
3812,36.0
3813,37.0
3814,39.0
3815,36.0
3816,34.0
3817,39.0
3818,41.0
3819,36.0
3820,32.0
3821,33.0
3822,31.0
3823,34.0
3824,36.0
3825,38.0
3826,35.0
3827,33.0
3828,29.0
3829,31.0
3830,33.0
3831,33.0
3832,28.0
3833,29.0
3834,31.0
3835,32.0
3836,35.0
3837,35.0
3838,33.0
3839,35.0
3840,34.0
3841,37.0
3842,41.0
3843,40.0
3844,35.0
3845,33.0
3846,31.0
3847,24.0
3848,30.0
3849,33.0
3850,34.0
3851,33.0
3852,35.0
3853,34.0
3854,35.0
3855,31.0
3856,36.0
3857,37.0
3858,39.0
3859,43.0
3860,43.0
3861,41.0
3862,35.0
3863,36.0
3864,38.0
3865,36.0
3866,39.0
3867,38.0
3868,42.0
3869,44.0
3870,44.0
3871,42.0
3872,37.0
3873,34.0
3874,37.0
3875,39.0
3876,41.0
3877,37.0
3878,39.0
3879,36.0
3880,35.0
3881,36.0
3882,39.0
3883,37.0
3884,35.0
3885,38.0
3886,39.0
3887,38.0
3888,46.0
3889,46.0
3890,43.0
3891,43.0
3892,44.0
3893,43.0
3894,41.0
3895,42.0
3896,42.0
3897,42.0
3898,40.0
3899,39.0
3900,40.0
3901,42.0
3902,41.0
3903,39.0
3904,39.0
3905,36.0
3906,39.0
3907,39.0
3908,40.0
3909,39.0
3910,34.0
3911,33.0
3912,37.0
3913,38.0
3914,36.0
3915,36.0
3916,37.0
3917,33.0
3918,34.0
3919,38.0
3920,38.0
3921,41.0
3922,41.0
3923,38.0
3924,37.0
3925,37.0
3926,37.0
3927,35.0
3928,35.0
3929,39.0
3930,40.0
3931,34.0
3932,38.0
3933,42.0
3934,40.0
3935,42.0
3936,41.0
3937,32.0
3938,32.0
3939,35.0
3940,37.0
3941,36.0
3942,31.0
3943,28.0
3944,34.0
3945,32.0
3946,35.0
3947,38.0
3948,41.0
3949,40.0
3950,35.0
3951,33.0
3952,34.0
3953,34.0
3954,38.0
3955,35.0
3956,36.0
3957,35.0
3958,32.0
3959,35.0
3960,33.0
3961,32.0
3962,34.0
3963,36.0
3964,36.0
3965,32.0
3966,31.0
3967,30.0
3968,32.0
3969,36.0
3970,34.0
3971,38.0
3972,40.0
3973,38.0
3974,38.0
3975,40.0
3976,37.0
3977,36.0
3978,38.0
3979,35.0
3980,32.0
3981,32.0
3982,31.0
3983,34.0
3984,32.0
3985,31.0
3986,31.0
3987,29.0
3988,28.0
3989,30.0
3990,32.0
3991,34.0
3992,39.0
3993,36.0
3994,34.0
3995,35.0
3996,35.0
3997,31.0
3998,30.0
3999,29.0
4000,33.0
4001,35.0
4002,36.0
4003,37.0
4004,36.0
4005,33.0
4006,32.0
4007,35.0
4008,34.0
4009,32.0
4010,31.0
4011,31.0
4012,33.0
4013,35.0
4014,36.0
4015,34.0
4016,33.0
4017,35.0
4018,33.0
4019,34.0
4020,36.0
4021,33.0
4022,32.0
4023,31.0
4024,29.0
4025,27.0
4026,30.0
4027,33.0
4028,37.0
4029,38.0
4030,41.0
4031,38.0
4032,38.0
4033,39.0
4034,39.0
4035,33.0
4036,31.0
4037,30.0
4038,29.0
4039,38.0
4040,40.0
4041,38.0
4042,35.0
4043,36.0
4044,40.0
4045,34.0
4046,30.0
4047,29.0
4048,30.0
4049,30.0
4050,32.0
4051,33.0
4052,36.0
4053,37.0
4054,41.0
4055,40.0
4056,37.0
4057,36.0
4058,37.0
4059,39.0
4060,35.0
4061,34.0
4062,34.0
4063,33.0
4064,33.0
4065,34.0
4066,35.0
4067,39.0
4068,38.0
4069,36.0
4070,34.0
4071,35.0
4072,35.0
4073,36.0
4074,35.0
4075,33.0
4076,34.0
4077,34.0
4078,32.0
4079,33.0
4080,33.0
4081,36.0
4082,39.0
4083,39.0
4084,41.0
4085,41.0
4086,35.0
4087,38.0
4088,34.0
4089,32.0
4090,35.0
4091,36.0
4092,32.0
4093,32.0
4094,32.0
4095,33.0
4096,33.0
4097,36.0
4098,37.0
4099,40.0
4100,36.0
4101,33.0
4102,34.0
4103,35.0
4104,28.0
4105,26.0
4106,28.0
4107,28.0
4108,33.0
4109,38.0
4110,42.0
4111,37.0
4112,38.0
4113,37.0
4114,35.0
4115,31.0
4116,29.0
4117,26.0
4118,30.0
4119,36.0
4120,36.0
4121,36.0
4122,40.0
4123,39.0
4124,36.0
4125,33.0
4126,35.0
4127,33.0
4128,33.0
4129,29.0
4130,28.0
4131,28.0
4132,29.0
4133,29.0
4134,32.0
4135,36.0
4136,41.0
4137,40.0
4138,38.0
4139,37.0
4140,36.0
4141,33.0
4142,33.0
4143,31.0
4144,31.0
4145,31.0
4146,32.0
4147,33.0
4148,30.0
4149,33.0
4150,32.0
4151,32.0
4152,36.0
4153,37.0
4154,37.0
4155,35.0
4156,33.0
4157,32.0
4158,33.0
4159,35.0
4160,34.0
4161,35.0
4162,40.0
4163,37.0
4164,33.0
4165,30.0
4166,28.0
4167,28.0
4168,27.0
4169,25.0
4170,27.0
4171,31.0
4172,35.0
4173,43.0
4174,42.0
4175,38.0
4176,40.0
4177,41.0
4178,39.0
4179,41.0
4180,40.0
4181,36.0
4182,29.0
4183,30.0
4184,35.0
4185,35.0
4186,35.0
4187,33.0
4188,35.0
4189,39.0
4190,39.0
4191,36.0
4192,32.0
4193,33.0
4194,35.0
4195,33.0
4196,37.0
4197,40.0
4198,37.0
4199,33.0
4200,29.0
4201,29.0
4202,31.0
4203,28.0
4204,29.0
4205,25.0
4206,22.0
4207,26.0
4208,27.0
4209,31.0
4210,26.0
4211,27.0
4212,29.0
4213,28.0
4214,29.0
4215,24.0
4216,24.0
4217,28.0
4218,35.0
4219,36.0
4220,36.0
4221,38.0
4222,37.0
4223,31.0
4224,29.0
4225,32.0
4226,36.0
4227,35.0
4228,31.0
4229,27.0
4230,29.0
4231,31.0
4232,32.0
4233,34.0
4234,35.0
4235,38.0
4236,38.0
4237,35.0
4238,36.0
4239,36.0
4240,36.0
4241,36.0
4242,36.0
4243,36.0
4244,34.0
4245,33.0
4246,35.0
4247,36.0
4248,34.0
4249,35.0
4250,32.0
4251,27.0
4252,32.0
4253,34.0
4254,33.0
4255,33.0
4256,36.0
4257,39.0
4258,37.0
4259,40.0
4260,40.0
4261,39.0
4262,34.0
4263,35.0
4264,34.0
4265,36.0
4266,35.0
4267,34.0
4268,30.0
4269,31.0
4270,33.0
4271,38.0
4272,37.0
4273,37.0
4274,39.0
4275,37.0
4276,38.0
4277,40.0
4278,40.0
4279,40.0
4280,37.0
4281,32.0
4282,34.0
4283,36.0
4284,35.0
4285,33.0
4286,32.0
4287,29.0
4288,29.0
4289,33.0
4290,35.0
4291,31.0
4292,32.0
4293,35.0
4294,41.0
4295,39.0
4296,40.0
4297,41.0
4298,39.0
4299,37.0
4300,37.0
4301,39.0
4302,36.0
4303,40.0
4304,38.0
4305,35.0
4306,36.0
4307,39.0
4308,36.0
4309,35.0
4310,29.0
4311,33.0
4312,36.0
4313,37.0
4314,39.0
4315,40.0
4316,39.0
4317,37.0
4318,37.0
4319,35.0
4320,38.0
4321,41.0
4322,39.0
4323,33.0
4324,37.0
4325,43.0
4326,44.0
4327,39.0
4328,43.0
4329,45.0
4330,37.0
4331,30.0
4332,29.0
4333,33.0
4334,36.0
4335,37.0
4336,38.0
4337,43.0
4338,44.0
4339,43.0
4340,43.0
4341,41.0
4342,39.0
4343,38.0
4344,36.0
4345,33.0
4346,35.0
4347,36.0
4348,39.0
4349,33.0
4350,29.0
4351,41.0
4352,44.0
4353,45.0
4354,42.0
4355,40.0
4356,42.0
4357,40.0
4358,39.0
4359,40.0
4360,40.0
4361,41.0
4362,45.0
4363,45.0
4364,41.0
4365,38.0
4366,38.0
4367,40.0
4368,38.0
4369,38.0
4370,40.0
4371,42.0
4372,38.0
4373,36.0
4374,37.0
4375,38.0
4376,40.0
4377,42.0
4378,46.0
4379,42.0
4380,35.0
4381,39.0
4382,39.0
4383,43.0
4384,42.0
4385,38.0
4386,37.0
4387,35.0
4388,34.0
4389,35.0
4390,34.0
4391,36.0
4392,38.0
4393,41.0
4394,42.0
4395,39.0
4396,37.0
4397,36.0
4398,37.0
4399,35.0
4400,33.0
4401,31.0
4402,29.0
4403,32.0
4404,34.0
4405,37.0
4406,42.0
4407,39.0
4408,40.0
4409,43.0
4410,38.0
4411,36.0
4412,33.0
4413,30.0
4414,35.0
4415,33.0
4416,32.0
4417,31.0
4418,31.0
4419,33.0
4420,36.0
4421,36.0
4422,32.0
4423,30.0
4424,32.0
4425,36.0
4426,38.0
4427,33.0
4428,31.0
4429,35.0
4430,37.0
4431,39.0
4432,36.0
4433,37.0
4434,40.0
4435,37.0
4436,36.0
4437,34.0
4438,37.0
4439,37.0
4440,34.0
4441,31.0
4442,31.0
4443,29.0
4444,29.0
4445,27.0
4446,29.0
4447,33.0
4448,35.0
4449,35.0
4450,38.0
4451,39.0
4452,37.0
4453,33.0
4454,32.0
4455,28.0
4456,30.0
4457,34.0
4458,35.0
4459,35.0
4460,31.0
4461,33.0
4462,33.0
4463,35.0
4464,30.0
4465,32.0
4466,36.0
4467,32.0
4468,32.0
4469,32.0
4470,35.0
4471,36.0
4472,35.0
4473,36.0
4474,36.0
4475,37.0
4476,36.0
4477,33.0
4478,32.0
4479,35.0
4480,38.0
4481,39.0
4482,39.0
4483,38.0
4484,34.0
4485,33.0
4486,33.0
4487,33.0
4488,36.0
4489,32.0
4490,28.0
4491,26.0
4492,27.0
4493,28.0
4494,27.0
4495,28.0
4496,36.0
4497,36.0
4498,38.0
4499,38.0
4500,39.0
4501,38.0
4502,39.0
4503,37.0
4504,36.0
4505,36.0
4506,31.0
4507,31.0
4508,35.0
4509,37.0
4510,35.0
4511,35.0
4512,37.0
4513,34.0
4514,30.0
4515,32.0
4516,36.0
4517,33.0
4518,31.0
4519,31.0
4520,32.0
4521,31.0
4522,29.0
4523,32.0
4524,34.0
4525,39.0
4526,39.0
4527,38.0
4528,38.0
4529,39.0
4530,35.0
4531,39.0
4532,35.0
4533,32.0
4534,34.0
4535,32.0
4536,30.0
4537,33.0
4538,31.0
4539,33.0
4540,32.0
4541,37.0
4542,41.0
4543,41.0
4544,35.0
4545,32.0
4546,35.0
4547,37.0
4548,41.0
4549,37.0
4550,32.0
4551,27.0
4552,32.0
4553,39.0
4554,37.0
4555,35.0
4556,34.0
4557,33.0
4558,32.0
4559,35.0
4560,32.0
4561,30.0
4562,29.0
4563,35.0
4564,40.0
4565,35.0
4566,35.0
4567,34.0
4568,32.0
4569,36.0
4570,38.0
4571,39.0
4572,37.0
4573,35.0
4574,35.0
4575,37.0
4576,35.0
4577,35.0
4578,36.0
4579,34.0
4580,35.0
4581,33.0
4582,36.0
4583,34.0
4584,33.0
4585,35.0
4586,37.0
4587,33.0
4588,35.0
4589,35.0
4590,28.0
4591,28.0
4592,29.0
4593,31.0
4594,33.0
4595,30.0
4596,34.0
4597,36.0
4598,35.0
4599,31.0
4600,31.0
4601,34.0
4602,35.0
4603,33.0
4604,30.0
4605,26.0
4606,33.0
4607,33.0
4608,29.0
4609,32.0
4610,35.0
4611,38.0
4612,37.0
4613,38.0
4614,36.0
4615,34.0
4616,31.0
4617,30.0
4618,35.0
4619,35.0
4620,39.0
4621,34.0
4622,31.0
4623,33.0
4624,31.0
4625,33.0
4626,32.0
4627,28.0
4628,31.0
4629,31.0
4630,33.0
4631,36.0
4632,34.0
4633,35.0
4634,35.0
4635,33.0
4636,31.0
4637,34.0
4638,37.0
4639,37.0
4640,35.0
4641,35.0
4642,37.0
4643,33.0
4644,33.0
4645,35.0
4646,34.0
4647,29.0
4648,31.0
4649,36.0
4650,37.0
4651,35.0
4652,34.0
4653,36.0
4654,34.0
4655,35.0
4656,36.0
4657,32.0
4658,32.0
4659,31.0
4660,39.0
4661,38.0
4662,43.0
4663,47.0
4664,48.0
4665,45.0
4666,37.0
4667,35.0
4668,29.0
4669,28.0
4670,33.0
4671,31.0
4672,27.0
4673,23.0
4674,25.0
4675,26.0
4676,25.0
4677,34.0
4678,32.0
4679,32.0
4680,32.0
4681,29.0
4682,27.0
4683,23.0
4684,20.0
4685,21.0
4686,23.0
4687,27.0
4688,30.0
4689,26.0
4690,29.0
4691,35.0
4692,34.0
4693,37.0
4694,35.0
4695,31.0
4696,27.0
4697,29.0
4698,32.0
4699,33.0
4700,28.0
4701,32.0
4702,39.0
4703,38.0
4704,37.0
4705,39.0
4706,38.0
4707,40.0
4708,39.0
4709,36.0
4710,32.0
4711,30.0
4712,30.0
4713,31.0
4714,32.0
4715,31.0
4716,32.0
4717,34.0
4718,38.0
4719,38.0
4720,37.0
4721,34.0
4722,34.0
4723,35.0
4724,36.0
4725,35.0
4726,33.0
4727,32.0
4728,34.0
4729,34.0
4730,31.0
4731,30.0
4732,30.0
4733,34.0
4734,36.0
4735,33.0
4736,29.0
4737,32.0
4738,38.0
4739,37.0
4740,34.0
4741,34.0
4742,37.0
4743,38.0
4744,36.0
4745,36.0
4746,37.0
4747,38.0
4748,38.0
4749,39.0
4750,40.0
4751,35.0
4752,33.0
4753,36.0
4754,38.0
4755,37.0
4756,37.0
4757,40.0
4758,37.0
4759,36.0
4760,30.0
4761,33.0
4762,35.0
4763,31.0
4764,37.0
4765,31.0
4766,34.0
4767,38.0
4768,37.0
4769,32.0
4770,33.0
4771,34.0
4772,36.0
4773,36.0
4774,34.0
4775,33.0
4776,34.0
4777,34.0
4778,32.0
4779,30.0
4780,31.0
4781,28.0
4782,33.0
4783,37.0
4784,41.0
4785,45.0
4786,38.0
4787,38.0
4788,40.0
4789,40.0
4790,42.0
4791,45.0
4792,40.0
4793,41.0
4794,42.0
4795,38.0
4796,39.0
4797,39.0
4798,40.0
4799,40.0
4800,40.0
4801,45.0
4802,41.0
4803,40.0
4804,39.0
4805,42.0
4806,40.0
4807,41.0
4808,37.0
4809,36.0
4810,35.0
4811,33.0
4812,32.0
4813,35.0
4814,36.0
4815,41.0
4816,42.0
4817,42.0
4818,44.0
4819,40.0
4820,38.0
4821,36.0
4822,34.0
4823,39.0
4824,42.0
4825,40.0
4826,39.0
4827,40.0
4828,41.0
4829,43.0
4830,42.0
4831,40.0
4832,37.0
4833,33.0
4834,37.0
4835,40.0
4836,38.0
4837,39.0
4838,43.0
4839,44.0
4840,41.0
4841,41.0
4842,45.0
4843,42.0
4844,35.0
4845,41.0
4846,38.0
4847,38.0
4848,38.0
4849,36.0
4850,41.0
4851,43.0
4852,44.0
4853,42.0
4854,42.0
4855,43.0
4856,43.0
4857,43.0
4858,42.0
4859,41.0
4860,38.0
4861,31.0
4862,29.0
4863,32.0
4864,36.0
4865,37.0
4866,35.0
4867,29.0
4868,28.0
4869,33.0
4870,39.0
4871,47.0
4872,42.0
4873,39.0
4874,39.0
4875,37.0
4876,34.0
4877,30.0
4878,28.0
4879,26.0
4880,29.0
4881,31.0
4882,37.0
4883,42.0
4884,37.0
4885,38.0
4886,38.0
4887,39.0
4888,38.0
4889,36.0
4890,34.0
4891,35.0
4892,37.0
4893,37.0
4894,39.0
4895,37.0
4896,35.0
4897,35.0
4898,35.0
4899,35.0
4900,36.0
4901,34.0
4902,34.0
4903,37.0
4904,34.0
4905,34.0
4906,34.0
4907,34.0
4908,35.0
4909,32.0
4910,33.0
4911,34.0
4912,37.0
4913,37.0
4914,36.0
4915,34.0
4916,29.0
4917,27.0
4918,28.0
4919,30.0
4920,34.0
4921,30.0
4922,29.0
4923,33.0
4924,38.0
4925,45.0
4926,42.0
4927,38.0
4928,35.0
4929,33.0
4930,32.0
4931,33.0
4932,29.0
4933,26.0
4934,30.0
4935,31.0
4936,33.0
4937,36.0
4938,38.0
4939,38.0
4940,36.0
4941,33.0
4942,34.0
4943,36.0
4944,34.0
4945,37.0
4946,39.0
4947,36.0
4948,33.0
4949,33.0
4950,35.0
4951,36.0
4952,33.0
4953,33.0
4954,34.0
4955,33.0
4956,36.0
4957,38.0
4958,39.0
4959,36.0
4960,35.0
4961,35.0
4962,36.0
4963,34.0
4964,32.0
4965,33.0
4966,35.0
4967,34.0
4968,34.0
4969,30.0
4970,27.0
4971,31.0
4972,34.0
4973,39.0
4974,40.0
4975,41.0
4976,38.0
4977,35.0
4978,36.0
4979,36.0
4980,34.0
4981,34.0
4982,34.0
4983,36.0
4984,32.0
4985,31.0
4986,34.0
4987,37.0
4988,36.0
4989,37.0
4990,39.0
4991,39.0
4992,36.0
4993,32.0
4994,32.0
4995,31.0
4996,35.0
4997,37.0
4998,35.0
4999,32.0
5000,34.0
5001,36.0
5002,41.0
5003,41.0
5004,40.0
5005,32.0
5006,29.0
5007,31.0
5008,37.0
5009,37.0
5010,34.0
5011,36.0
5012,37.0
5013,37.0
5014,30.0
5015,25.0
5016,34.0
5017,37.0
5018,36.0
5019,38.0
5020,39.0
5021,39.0
5022,36.0
5023,33.0
5024,39.0
5025,42.0
5026,38.0
5027,33.0
5028,33.0
5029,31.0
5030,31.0
5031,34.0
5032,33.0
5033,40.0
5034,42.0
5035,41.0
5036,42.0
5037,41.0
5038,37.0
5039,32.0
5040,34.0
5041,37.0
5042,35.0
5043,35.0
5044,33.0
5045,35.0
5046,42.0
5047,40.0
5048,36.0
5049,36.0
5050,33.0
5051,35.0
5052,37.0
5053,35.0
5054,33.0
5055,27.0
5056,31.0
5057,36.0
5058,38.0
5059,40.0
5060,39.0
5061,38.0
5062,34.0
5063,34.0
5064,30.0
5065,32.0
5066,33.0
5067,36.0
5068,37.0
5069,35.0
5070,32.0
5071,29.0
5072,32.0
5073,34.0
5074,34.0
5075,38.0
5076,36.0
5077,33.0
5078,34.0
5079,30.0
5080,29.0
5081,32.0
5082,39.0
5083,38.0
5084,35.0
5085,32.0
5086,33.0
5087,34.0
5088,35.0
5089,33.0
5090,31.0
5091,33.0
5092,36.0
5093,35.0
5094,34.0
5095,32.0
5096,35.0
5097,33.0
5098,33.0
5099,35.0
5100,35.0
5101,31.0
5102,32.0
5103,31.0
5104,35.0
5105,37.0
5106,32.0
5107,35.0
5108,35.0
5109,34.0
5110,36.0
5111,37.0
5112,36.0
5113,36.0
5114,38.0
5115,38.0
5116,35.0
5117,34.0
5118,31.0
5119,35.0
5120,35.0
5121,37.0
5122,33.0
5123,34.0
5124,35.0
5125,37.0
5126,40.0
5127,41.0
5128,40.0
5129,38.0
5130,38.0
5131,36.0
5132,29.0
5133,32.0
5134,36.0
5135,42.0
5136,38.0
5137,36.0
5138,37.0
5139,37.0
5140,41.0
5141,42.0
5142,37.0
5143,33.0
5144,33.0
5145,33.0
5146,33.0
5147,28.0
5148,25.0
5149,30.0
5150,32.0
5151,30.0
5152,27.0
5153,26.0
5154,29.0
5155,27.0
5156,26.0
5157,25.0
5158,27.0
5159,26.0
5160,26.0
5161,28.0
5162,31.0
5163,33.0
5164,33.0
5165,33.0
5166,33.0
5167,36.0
5168,38.0
5169,36.0
5170,33.0
5171,39.0
5172,41.0
5173,39.0
5174,29.0
5175,29.0
5176,27.0
5177,30.0
5178,33.0
5179,37.0
5180,35.0
5181,33.0
5182,34.0
5183,35.0
5184,34.0
5185,37.0
5186,37.0
5187,37.0
5188,36.0
5189,35.0
5190,34.0
5191,35.0
5192,40.0
5193,37.0
5194,33.0
5195,33.0
5196,35.0
5197,39.0
5198,41.0
5199,37.0
5200,38.0
5201,36.0
5202,38.0
5203,37.0
5204,32.0
5205,29.0
5206,29.0
5207,32.0
5208,38.0
5209,39.0
5210,37.0
5211,36.0
5212,35.0
5213,36.0
5214,37.0
5215,38.0
5216,42.0
5217,40.0
5218,40.0
5219,37.0
5220,35.0
5221,37.0
5222,36.0
5223,36.0
5224,35.0
5225,31.0
5226,30.0
5227,33.0
5228,33.0
5229,33.0
5230,34.0
5231,32.0
5232,33.0
5233,33.0
5234,32.0
5235,35.0
5236,35.0
5237,37.0
5238,40.0
5239,40.0
5240,34.0
5241,35.0
5242,41.0
5243,38.0
5244,40.0
5245,41.0
5246,42.0
5247,36.0
5248,35.0
5249,37.0
5250,36.0
5251,38.0
5252,38.0
5253,36.0
5254,36.0
5255,39.0
5256,40.0
5257,40.0
5258,37.0
5259,35.0
5260,37.0
5261,36.0
5262,37.0
5263,43.0
5264,43.0
5265,43.0
5266,44.0
5267,40.0
5268,39.0
5269,35.0
5270,36.0
5271,34.0
5272,35.0
5273,37.0
5274,39.0
5275,38.0
5276,38.0
5277,36.0
5278,37.0
5279,31.0
5280,33.0
5281,38.0
5282,43.0
5283,44.0
5284,42.0
5285,40.0
5286,46.0
5287,45.0
5288,39.0
5289,38.0
5290,39.0
5291,38.0
5292,40.0
5293,39.0
5294,37.0
5295,41.0
5296,43.0
5297,46.0
5298,45.0
5299,45.0
5300,43.0
5301,44.0
5302,43.0
5303,38.0
5304,38.0
5305,40.0
5306,35.0
5307,36.0
5308,40.0
5309,42.0
5310,44.0
5311,44.0
5312,47.0
5313,47.0
5314,43.0
5315,42.0
5316,38.0
5317,34.0
5318,39.0
5319,43.0
5320,38.0
5321,42.0
5322,43.0
5323,43.0
5324,42.0
5325,39.0
5326,38.0
5327,40.0
5328,35.0
5329,35.0
5330,38.0
5331,40.0
5332,41.0
5333,33.0
5334,30.0
5335,39.0
5336,44.0
5337,40.0
5338,36.0
5339,39.0
5340,37.0
5341,39.0
5342,41.0
5343,38.0
5344,36.0
5345,37.0
5346,39.0
5347,34.0
5348,33.0
5349,35.0
5350,39.0
5351,43.0
5352,36.0
5353,34.0
5354,37.0
5355,38.0
5356,38.0
5357,41.0
5358,41.0
5359,36.0
5360,33.0
5361,30.0
5362,32.0
5363,35.0
5364,37.0
5365,39.0
5366,40.0
5367,38.0
5368,36.0
5369,36.0
5370,33.0
5371,32.0
5372,33.0
5373,37.0
5374,36.0
5375,36.0
5376,36.0
5377,33.0
5378,29.0
5379,32.0
5380,34.0
5381,31.0
5382,30.0
5383,31.0
5384,32.0
5385,35.0
5386,31.0
5387,28.0
5388,35.0
5389,40.0
5390,32.0
5391,31.0
5392,31.0
5393,34.0
5394,37.0
5395,37.0
5396,35.0
5397,40.0
5398,41.0
5399,37.0
5400,35.0
5401,38.0
5402,34.0
5403,37.0
5404,36.0
5405,33.0
5406,29.0
5407,32.0
5408,33.0
5409,35.0
5410,34.0
5411,38.0
5412,37.0
5413,35.0
5414,36.0
5415,39.0
5416,39.0
5417,39.0
5418,36.0
5419,34.0
5420,32.0
5421,34.0
5422,40.0
5423,39.0
5424,31.0
5425,30.0
5426,32.0
5427,36.0
5428,35.0
5429,31.0
5430,30.0
5431,36.0
5432,36.0
5433,31.0
5434,30.0
5435,32.0
5436,33.0
5437,38.0
5438,37.0
5439,35.0
5440,35.0
5441,35.0
5442,35.0
5443,33.0
5444,39.0
5445,36.0
5446,34.0
5447,36.0
5448,33.0
5449,32.0
5450,35.0
5451,33.0
5452,32.0
5453,35.0
5454,37.0
5455,41.0
5456,40.0
5457,41.0
5458,37.0
5459,36.0
5460,39.0
5461,41.0
5462,38.0
5463,34.0
5464,32.0
5465,32.0
5466,33.0
5467,37.0
5468,30.0
5469,35.0
5470,37.0
5471,35.0
5472,33.0
5473,34.0
5474,32.0
5475,31.0
5476,33.0
5477,32.0
5478,34.0
5479,35.0
5480,37.0
5481,37.0
5482,35.0
5483,37.0
5484,37.0
5485,42.0
5486,38.0
5487,36.0
5488,36.0
5489,34.0
5490,37.0
5491,38.0
5492,40.0
5493,36.0
5494,34.0
5495,38.0
5496,41.0
5497,37.0
5498,34.0
5499,36.0
5500,37.0
5501,35.0
5502,31.0
5503,30.0
5504,31.0
5505,31.0
5506,36.0
5507,37.0
5508,39.0
5509,38.0
5510,36.0
5511,36.0
5512,35.0
5513,36.0
5514,39.0
5515,43.0
5516,40.0
5517,36.0
5518,35.0
5519,35.0
5520,36.0
5521,31.0
5522,30.0
5523,28.0
5524,25.0
5525,26.0
5526,28.0
5527,36.0
5528,33.0
5529,35.0
5530,38.0
5531,36.0
5532,38.0
5533,39.0
5534,34.0
5535,34.0
5536,33.0
5537,33.0
5538,37.0
5539,43.0
5540,43.0
5541,41.0
5542,37.0
5543,37.0
5544,35.0
5545,32.0
5546,32.0
5547,28.0
5548,30.0
5549,34.0
5550,34.0
5551,32.0
5552,36.0
5553,35.0
5554,31.0
5555,35.0
5556,36.0
5557,36.0
5558,36.0
5559,34.0
5560,34.0
5561,30.0
5562,28.0
5563,28.0
5564,30.0
5565,32.0
5566,36.0
5567,39.0
5568,39.0
5569,37.0
5570,36.0
5571,35.0
5572,33.0
5573,31.0
5574,31.0
5575,28.0
5576,30.0
5577,36.0
5578,35.0
5579,35.0
5580,29.0
5581,25.0
5582,31.0
5583,34.0
5584,35.0
5585,39.0
5586,37.0
5587,37.0
5588,36.0
5589,34.0
5590,36.0
5591,33.0
5592,33.0
5593,37.0
5594,40.0
5595,40.0
5596,39.0
5597,38.0
5598,36.0
5599,34.0
5600,34.0
5601,38.0
5602,39.0
5603,37.0
5604,34.0
5605,36.0
5606,33.0
5607,34.0
5608,34.0
5609,33.0
5610,35.0
5611,38.0
5612,37.0
5613,38.0
5614,33.0
5615,34.0
5616,34.0
5617,31.0
5618,28.0
5619,26.0
5620,22.0
5621,21.0
5622,25.0
5623,25.0
5624,25.0
5625,28.0
5626,30.0
5627,27.0
5628,36.0
5629,37.0
5630,31.0
5631,24.0
5632,23.0
5633,33.0
5634,34.0
5635,34.0
5636,38.0
5637,36.0
5638,32.0
5639,35.0
5640,37.0
5641,36.0
5642,36.0
5643,30.0
5644,28.0
5645,29.0
5646,31.0
5647,33.0
5648,34.0
5649,34.0
5650,35.0
5651,33.0
5652,34.0
5653,35.0
5654,36.0
5655,36.0
5656,38.0
5657,36.0
5658,40.0
5659,38.0
5660,34.0
5661,33.0
5662,32.0
5663,33.0
5664,36.0
5665,35.0
5666,35.0
5667,37.0
5668,36.0
5669,34.0
5670,34.0
5671,34.0
5672,35.0
5673,32.0
5674,29.0
5675,32.0
5676,31.0
5677,33.0
5678,34.0
5679,34.0
5680,39.0
5681,39.0
5682,45.0
5683,42.0
5684,37.0
5685,36.0
5686,33.0
5687,33.0
5688,35.0
5689,37.0
5690,34.0
5691,35.0
5692,35.0
5693,34.0
5694,36.0
5695,34.0
5696,34.0
5697,31.0
5698,33.0
5699,32.0
5700,37.0
5701,35.0
5702,38.0
5703,39.0
5704,41.0
5705,44.0
5706,39.0
5707,42.0
5708,41.0
5709,35.0
5710,35.0
5711,37.0
5712,35.0
5713,37.0
5714,35.0
5715,34.0
5716,34.0
5717,36.0
5718,35.0
5719,34.0
5720,39.0
5721,34.0
5722,33.0
5723,35.0
5724,37.0
5725,38.0
5726,42.0
5727,40.0
5728,39.0
5729,41.0
5730,36.0
5731,39.0
5732,39.0
5733,37.0
5734,37.0
5735,39.0
5736,40.0
5737,40.0
5738,39.0
5739,38.0
5740,36.0
5741,35.0
5742,35.0
5743,38.0
5744,39.0
5745,38.0
5746,40.0
5747,41.0
5748,36.0
5749,37.0
5750,40.0
5751,41.0
5752,41.0
5753,38.0
5754,34.0
5755,30.0
5756,35.0
5757,45.0
5758,41.0
5759,42.0
5760,43.0
5761,40.0
5762,42.0
5763,41.0
5764,42.0
5765,40.0
5766,40.0
5767,38.0
5768,36.0
5769,41.0
5770,42.0
5771,41.0
5772,44.0
5773,42.0
5774,43.0
5775,41.0
5776,40.0
5777,41.0
5778,38.0
5779,41.0
5780,46.0
5781,43.0
5782,39.0
5783,41.0
5784,44.0
5785,44.0
5786,44.0
5787,39.0
5788,41.0
5789,41.0
5790,43.0
5791,41.0
5792,40.0
5793,41.0
5794,41.0
5795,44.0
5796,45.0
5797,39.0
5798,42.0
5799,41.0
5800,37.0
5801,38.0
5802,39.0
5803,39.0
5804,39.0
5805,34.0
5806,37.0
5807,38.0
5808,39.0
5809,39.0
5810,34.0
5811,34.0
5812,37.0
5813,34.0
5814,34.0
5815,39.0
5816,37.0
5817,36.0
5818,35.0
5819,36.0
5820,33.0
5821,31.0
5822,29.0
5823,33.0
5824,42.0
5825,36.0
5826,29.0
5827,30.0
5828,36.0
5829,38.0
5830,39.0
5831,47.0
5832,47.0
5833,47.0
5834,46.0
5835,41.0
5836,33.0
5837,31.0
5838,26.0
5839,25.0
5840,32.0
5841,35.0
5842,39.0
5843,40.0
5844,40.0
5845,41.0
5846,41.0
5847,35.0
5848,34.0
5849,31.0
5850,28.0
5851,32.0
5852,37.0
5853,38.0
5854,37.0
5855,32.0
5856,34.0
5857,34.0
5858,32.0
5859,34.0
5860,31.0
5861,31.0
5862,27.0
5863,29.0
5864,34.0
5865,33.0
5866,34.0
5867,35.0
5868,34.0
5869,36.0
5870,37.0
5871,37.0
5872,35.0
5873,36.0
5874,35.0
5875,35.0
5876,34.0
5877,32.0
5878,32.0
5879,34.0
5880,34.0
5881,34.0
5882,34.0
5883,37.0
5884,34.0
5885,33.0
5886,36.0
5887,38.0
5888,42.0
5889,45.0
5890,44.0
5891,42.0
5892,36.0
5893,34.0
5894,34.0
5895,33.0
5896,32.0
5897,31.0
5898,29.0
5899,36.0
5900,44.0
5901,41.0
5902,36.0
5903,39.0
5904,35.0
5905,36.0
5906,35.0
5907,34.0
5908,34.0
5909,37.0
5910,38.0
5911,32.0
5912,32.0
5913,37.0
5914,36.0
5915,36.0
5916,33.0
5917,31.0
5918,32.0
5919,30.0
5920,35.0
5921,38.0
5922,36.0
5923,38.0
5924,39.0
5925,36.0
5926,37.0
5927,37.0
5928,37.0
5929,33.0
5930,32.0
5931,30.0
5932,32.0
5933,32.0
5934,33.0
5935,35.0
5936,38.0
5937,39.0
5938,39.0
5939,37.0
5940,36.0
5941,36.0
5942,38.0
5943,37.0
5944,38.0
5945,38.0
5946,36.0
5947,43.0
5948,44.0
5949,45.0
5950,39.0
5951,32.0
5952,29.0
5953,31.0
5954,29.0
5955,27.0
5956,27.0
5957,28.0
5958,33.0
5959,38.0
5960,41.0
5961,41.0
5962,38.0
5963,35.0
5964,37.0
5965,41.0
5966,41.0
5967,45.0
5968,36.0
5969,32.0
5970,32.0
5971,39.0
5972,38.0
5973,39.0
5974,35.0
5975,43.0
5976,44.0
5977,39.0
5978,36.0
5979,33.0
5980,35.0
5981,36.0
5982,34.0
5983,34.0
5984,34.0
5985,33.0
5986,35.0
5987,38.0
5988,36.0
5989,38.0
5990,38.0
5991,38.0
5992,39.0
5993,38.0
5994,35.0
5995,36.0
5996,39.0
5997,40.0
5998,38.0
5999,34.0
6000,32.0
6001,33.0
6002,33.0
6003,36.0
6004,36.0
6005,37.0
6006,32.0
6007,33.0
6008,32.0
6009,31.0
6010,34.0
6011,33.0
6012,35.0
6013,34.0
6014,33.0
6015,33.0
6016,33.0
6017,34.0
6018,39.0
6019,37.0
6020,35.0
6021,38.0
6022,38.0
6023,39.0
6024,45.0
6025,43.0
6026,34.0
6027,36.0
6028,40.0
6029,31.0
6030,30.0
6031,31.0
6032,31.0
6033,29.0
6034,35.0
6035,39.0
6036,39.0
6037,38.0
6038,34.0
6039,33.0
6040,35.0
6041,41.0
6042,38.0
6043,33.0
6044,30.0
6045,35.0
6046,33.0
6047,34.0
6048,34.0
6049,36.0
6050,36.0
6051,36.0
6052,35.0
6053,35.0
6054,33.0
6055,31.0
6056,32.0
6057,37.0
6058,36.0
6059,38.0
6060,42.0
6061,45.0
6062,42.0
6063,40.0
6064,39.0
6065,42.0
6066,36.0
6067,36.0
6068,33.0
6069,32.0
6070,36.0
6071,39.0
6072,37.0
6073,38.0
6074,39.0
6075,34.0
6076,31.0
6077,36.0
6078,32.0
6079,36.0
6080,37.0
6081,37.0
6082,37.0
6083,37.0
6084,33.0
6085,31.0
6086,36.0
6087,35.0
6088,33.0
6089,35.0
6090,33.0
6091,30.0
6092,29.0
6093,27.0
6094,28.0
6095,29.0
6096,28.0
6097,30.0
6098,31.0
6099,28.0
6100,33.0
6101,28.0
6102,28.0
6103,29.0
6104,30.0
6105,39.0
6106,43.0
6107,38.0
6108,38.0
6109,37.0
6110,37.0
6111,31.0
6112,34.0
6113,39.0
6114,39.0
6115,33.0
6116,31.0
6117,23.0
6118,26.0
6119,32.0
6120,36.0
6121,40.0
6122,41.0
6123,39.0
6124,39.0
6125,40.0
6126,39.0
6127,39.0
6128,39.0
6129,42.0
6130,44.0
6131,42.0
6132,38.0
6133,34.0
6134,33.0
6135,36.0
6136,33.0
6137,34.0
6138,37.0
6139,37.0
6140,36.0
6141,40.0
6142,42.0
6143,41.0
6144,39.0
6145,36.0
6146,38.0
6147,37.0
6148,38.0
6149,41.0
6150,40.0
6151,37.0
6152,35.0
6153,36.0
6154,41.0
6155,42.0
6156,37.0
6157,39.0
6158,37.0
6159,34.0
6160,33.0
6161,36.0
6162,34.0
6163,34.0
6164,35.0
6165,38.0
6166,38.0
6167,42.0
6168,38.0
6169,37.0
6170,37.0
6171,36.0
6172,39.0
6173,40.0
6174,41.0
6175,43.0
6176,42.0
6177,38.0
6178,38.0
6179,39.0
6180,38.0
6181,42.0
6182,37.0
6183,36.0
6184,38.0
6185,33.0
6186,36.0
6187,39.0
6188,39.0
6189,42.0
6190,46.0
6191,39.0
6192,31.0
6193,37.0
6194,43.0
6195,41.0
6196,40.0
6197,43.0
6198,43.0
6199,45.0
6200,43.0
6201,44.0
6202,43.0
6203,38.0
6204,36.0
6205,37.0
6206,39.0
6207,37.0
6208,40.0
6209,41.0
6210,42.0
6211,43.0
6212,41.0
6213,45.0
6214,41.0
6215,40.0
6216,34.0
6217,37.0
6218,40.0
6219,34.0
6220,34.0
6221,38.0
6222,41.0
6223,44.0
6224,42.0
6225,39.0
6226,47.0
6227,50.0
6228,45.0
6229,45.0
6230,40.0
6231,41.0
6232,41.0
6233,41.0
6234,42.0
6235,42.0
6236,49.0
6237,45.0
6238,42.0
6239,42.0
6240,47.0
6241,43.0
6242,46.0
6243,49.0
6244,46.0
6245,43.0
6246,44.0
6247,48.0
6248,48.0
6249,48.0
6250,49.0
6251,47.0
6252,47.0
6253,49.0
6254,41.0
6255,37.0
6256,39.0
6257,37.0
6258,38.0
6259,40.0
6260,40.0
6261,41.0
6262,42.0
6263,44.0
6264,45.0
6265,47.0
6266,44.0
6267,46.0
6268,42.0
6269,37.0
6270,41.0
6271,43.0
6272,44.0
6273,41.0
6274,33.0
6275,40.0
6276,45.0
6277,39.0
6278,39.0
6279,32.0
6280,34.0
6281,43.0
6282,44.0
6283,43.0
6284,38.0
6285,38.0
6286,38.0
6287,36.0
6288,36.0
6289,41.0
6290,41.0
6291,41.0
6292,44.0
6293,43.0
6294,39.0
6295,37.0
6296,38.0
6297,41.0
6298,41.0
6299,46.0
6300,43.0
6301,41.0
6302,38.0
6303,41.0
6304,44.0
6305,43.0
6306,42.0
6307,38.0
6308,36.0
6309,43.0
6310,46.0
6311,40.0
6312,35.0
6313,37.0
6314,38.0
6315,39.0
6316,40.0
6317,37.0
6318,35.0
6319,35.0
6320,31.0
6321,34.0
6322,33.0
6323,41.0
6324,41.0
6325,38.0
6326,36.0
6327,38.0
6328,34.0
6329,33.0
6330,32.0
6331,37.0
6332,37.0
6333,38.0
6334,40.0
6335,39.0
6336,40.0
6337,41.0
6338,43.0
6339,39.0
6340,36.0
6341,38.0
6342,40.0
6343,39.0
6344,38.0
6345,35.0
6346,41.0
6347,41.0
6348,40.0
6349,38.0
6350,40.0
6351,46.0
6352,43.0
6353,42.0
6354,38.0
6355,40.0
6356,41.0
6357,43.0
6358,42.0
6359,40.0
6360,37.0
6361,34.0
6362,36.0
6363,38.0
6364,36.0
6365,36.0
6366,37.0
6367,37.0
6368,35.0
6369,41.0
6370,41.0
6371,42.0
6372,44.0
6373,40.0
6374,34.0
6375,33.0
6376,37.0
6377,37.0
6378,33.0
6379,33.0
6380,33.0
6381,33.0
6382,47.0
6383,51.0
6384,47.0
6385,46.0
6386,41.0
6387,37.0
6388,38.0
6389,37.0
6390,34.0
6391,35.0
6392,36.0
6393,38.0
6394,38.0
6395,39.0
6396,37.0
6397,40.0
6398,39.0
6399,37.0
6400,39.0
6401,41.0
6402,44.0
6403,42.0
6404,41.0
6405,38.0
6406,38.0
6407,38.0
6408,40.0
6409,42.0
6410,45.0
6411,41.0
6412,41.0
6413,42.0
6414,43.0
6415,38.0
6416,38.0
6417,42.0
6418,41.0
6419,40.0
6420,38.0
6421,41.0
6422,43.0
6423,43.0
6424,44.0
6425,42.0
6426,42.0
6427,41.0
6428,41.0
6429,37.0
6430,33.0
6431,33.0
6432,35.0
6433,35.0
6434,39.0
6435,38.0
6436,42.0
6437,39.0
6438,40.0
6439,41.0
6440,41.0
6441,41.0
6442,38.0
6443,35.0
6444,36.0
6445,40.0
6446,39.0
6447,38.0
6448,41.0
6449,39.0
6450,40.0
6451,42.0
6452,40.0
6453,42.0
6454,45.0
6455,46.0
6456,41.0
6457,36.0
6458,31.0
6459,36.0
6460,36.0
6461,35.0
6462,39.0
6463,45.0
6464,45.0
6465,41.0
6466,33.0
6467,34.0
6468,39.0
6469,35.0
6470,39.0
6471,37.0
6472,34.0
6473,35.0
6474,35.0
6475,34.0
6476,36.0
6477,41.0
6478,43.0
6479,44.0
6480,41.0
6481,43.0
6482,44.0
6483,45.0
6484,42.0
6485,39.0
6486,39.0
6487,39.0
6488,37.0
6489,37.0
6490,38.0
6491,40.0
6492,40.0
6493,41.0
6494,36.0
6495,33.0
6496,34.0
6497,38.0
6498,41.0
6499,41.0
6500,39.0
6501,39.0
6502,43.0
6503,43.0
6504,41.0
6505,36.0
6506,35.0
6507,38.0
6508,40.0
6509,38.0
6510,39.0
6511,34.0
6512,33.0
6513,37.0
6514,38.0
6515,35.0
6516,38.0
6517,39.0
6518,40.0
6519,38.0
6520,37.0
6521,40.0
6522,40.0
6523,45.0
6524,44.0
6525,40.0
6526,42.0
6527,42.0
6528,44.0
6529,42.0
6530,42.0
6531,44.0
6532,41.0
6533,35.0
6534,32.0
6535,38.0
6536,39.0
6537,40.0
6538,43.0
6539,43.0
6540,43.0
6541,40.0
6542,37.0
6543,41.0
6544,42.0
6545,36.0
6546,37.0
6547,37.0
6548,37.0
6549,35.0
6550,34.0
6551,36.0
6552,32.0
6553,27.0
6554,28.0
6555,33.0
6556,34.0
6557,33.0
6558,31.0
6559,33.0
6560,35.0
6561,35.0
6562,36.0
6563,34.0
6564,35.0
6565,36.0
6566,32.0
6567,32.0
6568,34.0
6569,35.0
6570,40.0
6571,40.0
6572,40.0
6573,45.0
6574,46.0
6575,41.0
6576,39.0
6577,39.0
6578,40.0
6579,37.0
6580,36.0
6581,36.0
6582,35.0
6583,34.0
6584,39.0
6585,40.0
6586,40.0
6587,41.0
6588,41.0
6589,39.0
6590,41.0
6591,38.0
6592,36.0
6593,36.0
6594,35.0
6595,41.0
6596,45.0
6597,42.0
6598,43.0
6599,41.0
6600,39.0
6601,38.0
6602,40.0
6603,37.0
6604,38.0
6605,40.0
6606,40.0
6607,40.0
6608,40.0
6609,40.0
6610,40.0
6611,39.0
6612,39.0
6613,37.0
6614,42.0
6615,41.0
6616,40.0
6617,40.0
6618,40.0
6619,39.0
6620,39.0
6621,40.0
6622,40.0
6623,41.0
6624,43.0
6625,41.0
6626,39.0
6627,41.0
6628,42.0
6629,43.0
6630,41.0
6631,43.0
6632,39.0
6633,33.0
6634,40.0
6635,41.0
6636,44.0
6637,48.0
6638,44.0
6639,40.0
6640,35.0
6641,37.0
6642,40.0
6643,43.0
6644,43.0
6645,45.0
6646,41.0
6647,35.0
6648,35.0
6649,39.0
6650,41.0
6651,41.0
6652,42.0
6653,41.0
6654,40.0
6655,35.0
6656,37.0
6657,38.0
6658,40.0
6659,43.0
6660,43.0
6661,40.0
6662,39.0
6663,41.0
6664,40.0
6665,40.0
6666,41.0
6667,45.0
6668,45.0
6669,42.0
6670,42.0
6671,38.0
6672,40.0
6673,44.0
6674,45.0
6675,42.0
6676,45.0
6677,44.0
6678,44.0
6679,45.0
6680,41.0
6681,41.0
6682,46.0
6683,53.0
6684,48.0
6685,48.0
6686,50.0
6687,48.0
6688,43.0
6689,42.0
6690,42.0
6691,47.0
6692,48.0
6693,48.0
6694,44.0
6695,40.0
6696,40.0
6697,43.0
6698,44.0
6699,44.0
6700,44.0
6701,40.0
6702,42.0
6703,43.0
6704,43.0
6705,48.0
6706,47.0
6707,45.0
6708,45.0
6709,42.0
6710,41.0
6711,42.0
6712,47.0
6713,49.0
6714,47.0
6715,44.0
6716,42.0
6717,43.0
6718,46.0
6719,46.0
6720,47.0
6721,47.0
6722,49.0
6723,49.0
6724,49.0
6725,47.0
6726,50.0
6727,49.0
6728,46.0
6729,44.0
6730,42.0
6731,42.0
6732,40.0
6733,45.0
6734,44.0
6735,46.0
6736,43.0
6737,41.0
6738,39.0
6739,43.0
6740,45.0
6741,46.0
6742,40.0
6743,38.0
6744,42.0
6745,43.0
6746,43.0
6747,41.0
6748,37.0
6749,37.0
6750,38.0
6751,42.0
6752,42.0
6753,43.0
6754,47.0
6755,44.0
6756,42.0
6757,42.0
6758,42.0
6759,41.0
6760,43.0
6761,44.0
6762,44.0
6763,47.0
6764,48.0
6765,45.0
6766,42.0
6767,38.0
6768,40.0
6769,36.0
6770,34.0
6771,36.0
6772,34.0
6773,35.0
6774,36.0
6775,39.0
6776,39.0
6777,40.0
6778,41.0
6779,38.0
6780,40.0
6781,37.0
6782,37.0
6783,35.0
6784,35.0
6785,32.0
6786,33.0
6787,39.0
6788,37.0
6789,33.0
6790,36.0
6791,40.0
6792,42.0
6793,44.0
6794,46.0
6795,42.0
6796,41.0
6797,38.0
6798,37.0
6799,41.0
6800,41.0
6801,44.0
6802,43.0
6803,41.0
6804,40.0
6805,42.0
6806,43.0
6807,40.0
6808,42.0
6809,47.0
6810,43.0
6811,43.0
6812,43.0
6813,42.0
6814,36.0
6815,36.0
6816,37.0
6817,38.0
6818,39.0
6819,39.0
6820,39.0
6821,40.0
6822,42.0
6823,43.0
6824,41.0
6825,43.0
6826,40.0
6827,38.0
6828,38.0
6829,38.0
6830,40.0
6831,41.0
6832,43.0
6833,41.0
6834,44.0
6835,40.0
6836,37.0
6837,36.0
6838,37.0
6839,38.0
6840,40.0
6841,41.0
6842,43.0
6843,43.0
6844,44.0
6845,37.0
6846,37.0
6847,41.0
6848,39.0
6849,39.0
6850,44.0
6851,43.0
6852,39.0
6853,35.0
6854,34.0
6855,33.0
6856,32.0
6857,35.0
6858,39.0
6859,40.0
6860,40.0
6861,43.0
6862,44.0
6863,46.0
6864,45.0
6865,47.0
6866,49.0
6867,45.0
6868,43.0
6869,39.0
6870,40.0
6871,39.0
6872,39.0
6873,40.0
6874,41.0
6875,43.0
6876,42.0
6877,43.0
6878,42.0
6879,42.0
6880,40.0
6881,39.0
6882,42.0
6883,44.0
6884,41.0
6885,43.0
6886,39.0
6887,34.0
6888,40.0
6889,44.0
6890,43.0
6891,42.0
6892,43.0
6893,40.0
6894,35.0
6895,41.0
6896,43.0
6897,43.0
6898,42.0
6899,36.0
6900,39.0
6901,42.0
6902,45.0
6903,44.0
6904,42.0
6905,40.0
6906,41.0
6907,40.0
6908,39.0
6909,42.0
6910,40.0
6911,39.0
6912,39.0
6913,39.0
6914,40.0
6915,40.0
6916,43.0
6917,44.0
6918,42.0
6919,38.0
6920,34.0
6921,39.0
6922,38.0
6923,38.0
6924,35.0
6925,31.0
6926,36.0
6927,41.0
6928,40.0
6929,43.0
6930,43.0
6931,46.0
6932,44.0
6933,43.0
6934,38.0
6935,40.0
6936,40.0
6937,42.0
6938,43.0
6939,46.0
6940,45.0
6941,46.0
6942,41.0
6943,39.0
6944,36.0
6945,33.0
6946,33.0
6947,33.0
6948,36.0
6949,43.0
6950,40.0
6951,35.0
6952,38.0
6953,38.0
6954,38.0
6955,37.0
6956,39.0
6957,36.0
6958,39.0
6959,38.0
6960,36.0
6961,39.0
6962,40.0
6963,37.0
6964,40.0
6965,40.0
6966,39.0
6967,39.0
6968,43.0
6969,47.0
6970,44.0
6971,44.0
6972,46.0
6973,47.0
6974,44.0
6975,36.0
6976,32.0
6977,28.0
6978,31.0
6979,35.0
6980,43.0
6981,46.0
6982,42.0
6983,43.0
6984,43.0
6985,42.0
6986,42.0
6987,43.0
6988,42.0
6989,39.0
6990,34.0
6991,37.0
6992,42.0
6993,42.0
6994,43.0
6995,42.0
6996,42.0
6997,42.0
6998,43.0
6999,43.0
7000,38.0
7001,39.0
7002,39.0
7003,44.0
7004,46.0
7005,47.0
7006,50.0
7007,50.0
7008,42.0
7009,38.0
7010,35.0
7011,37.0
7012,36.0
7013,36.0
7014,35.0
7015,31.0
7016,30.0
7017,29.0
7018,32.0
7019,35.0
7020,33.0
7021,33.0
7022,38.0
7023,43.0
7024,40.0
7025,39.0
7026,38.0
7027,33.0
7028,34.0
7029,32.0
7030,35.0
7031,36.0
7032,33.0
7033,35.0
7034,39.0
7035,34.0
7036,37.0
7037,45.0
7038,45.0
7039,44.0
7040,40.0
7041,41.0
7042,39.0
7043,41.0
7044,37.0
7045,37.0
7046,39.0
7047,42.0
7048,42.0
7049,39.0
7050,38.0
7051,40.0
7052,42.0
7053,45.0
7054,43.0
7055,40.0
7056,36.0
7057,39.0
7058,42.0
7059,45.0
7060,43.0
7061,42.0
7062,40.0
7063,38.0
7064,39.0
7065,39.0
7066,39.0
7067,38.0
7068,42.0
7069,42.0
7070,40.0
7071,38.0
7072,42.0
7073,41.0
7074,45.0
7075,45.0
7076,44.0
7077,42.0
7078,41.0
7079,41.0
7080,40.0
7081,39.0
7082,41.0
7083,44.0
7084,46.0
7085,42.0
7086,40.0
7087,40.0
7088,42.0
7089,44.0
7090,47.0
7091,49.0
7092,46.0
7093,45.0
7094,43.0
7095,44.0
7096,44.0
7097,43.0
7098,40.0
7099,45.0
7100,39.0
7101,41.0
7102,37.0
7103,40.0
7104,42.0
7105,47.0
7106,42.0
7107,38.0
7108,39.0
7109,39.0
7110,42.0
7111,44.0
7112,44.0
7113,44.0
7114,43.0
7115,42.0
7116,44.0
7117,44.0
7118,43.0
7119,43.0
7120,43.0
7121,38.0
7122,41.0
7123,43.0
7124,40.0
7125,44.0
7126,43.0
7127,41.0
7128,45.0
7129,42.0
7130,44.0
7131,43.0
7132,40.0
7133,38.0
7134,39.0
7135,37.0
7136,44.0
7137,45.0
7138,39.0
7139,46.0
7140,46.0
7141,45.0
7142,50.0
7143,51.0
7144,51.0
7145,45.0
7146,45.0
7147,42.0
7148,42.0
7149,42.0
7150,46.0
7151,47.0
7152,48.0
7153,46.0
7154,47.0
7155,51.0
7156,48.0
7157,48.0
7158,47.0
7159,50.0
7160,51.0
7161,50.0
7162,49.0
7163,48.0
7164,47.0
7165,49.0
7166,49.0
7167,49.0
7168,45.0
7169,46.0
7170,44.0
7171,42.0
7172,44.0
7173,45.0
7174,44.0
7175,43.0
7176,47.0
7177,46.0
7178,43.0
7179,41.0
7180,43.0
7181,46.0
7182,47.0
7183,49.0
7184,47.0
7185,44.0
7186,44.0
7187,44.0
7188,49.0
7189,53.0
7190,50.0
7191,49.0
7192,46.0
7193,47.0
7194,48.0
7195,48.0
7196,46.0
7197,42.0
7198,42.0
7199,45.0
7200,44.0
7201,41.0
7202,42.0
7203,42.0
7204,43.0
7205,45.0
7206,45.0
7207,44.0
7208,44.0
7209,44.0
7210,46.0
7211,45.0
7212,43.0
7213,44.0
7214,45.0
7215,45.0
7216,40.0
7217,41.0
7218,41.0
7219,43.0
7220,43.0
7221,46.0
7222,44.0
7223,43.0
7224,43.0
7225,44.0
7226,50.0
7227,49.0
7228,43.0
7229,41.0
7230,39.0
7231,40.0
7232,39.0
7233,41.0
7234,43.0
7235,41.0
7236,40.0
7237,39.0
7238,38.0
7239,39.0
7240,42.0
7241,41.0
7242,43.0
7243,43.0
7244,42.0
7245,39.0
7246,40.0
7247,39.0
7248,42.0
7249,45.0
7250,49.0
7251,51.0
7252,51.0
7253,46.0
7254,42.0
7255,42.0
7256,36.0
7257,39.0
7258,41.0
7259,45.0
7260,47.0
7261,42.0
7262,41.0
7263,42.0
7264,40.0
7265,37.0
7266,40.0
7267,38.0
7268,39.0
7269,44.0
7270,44.0
7271,37.0
7272,35.0
7273,39.0
7274,41.0
7275,40.0
7276,43.0
7277,46.0
7278,48.0
7279,46.0
7280,43.0
7281,40.0
7282,39.0
7283,45.0
7284,41.0
7285,39.0
7286,40.0
7287,41.0
7288,42.0
7289,40.0
7290,40.0
7291,40.0
7292,40.0
7293,43.0
7294,47.0
7295,44.0
7296,42.0
7297,42.0
7298,41.0
7299,40.0
7300,42.0
7301,43.0
7302,48.0
7303,45.0
7304,38.0
7305,43.0
7306,54.0
7307,49.0
7308,45.0
7309,40.0
7310,43.0
7311,45.0
7312,42.0
7313,42.0
7314,34.0
7315,34.0
7316,37.0
7317,39.0
7318,49.0
7319,47.0
7320,43.0
7321,46.0
7322,47.0
7323,45.0
7324,45.0
7325,44.0
7326,42.0
7327,41.0
7328,43.0
7329,44.0
7330,41.0
7331,43.0
7332,41.0
7333,41.0
7334,41.0
7335,41.0
7336,38.0
7337,39.0
7338,46.0
7339,44.0
7340,39.0
7341,42.0
7342,46.0
7343,45.0
7344,45.0
7345,50.0
7346,45.0
7347,44.0
7348,46.0
7349,43.0
7350,47.0
7351,51.0
7352,50.0
7353,48.0
7354,46.0
7355,44.0
7356,45.0
7357,44.0
7358,45.0
7359,41.0
7360,39.0
7361,43.0
7362,43.0
7363,41.0
7364,48.0
7365,50.0
7366,45.0
7367,47.0
7368,46.0
7369,43.0
7370,44.0
7371,44.0
7372,45.0
7373,48.0
7374,44.0
7375,38.0
7376,39.0
7377,43.0
7378,44.0
7379,45.0
7380,41.0
7381,42.0
7382,42.0
7383,42.0
7384,45.0
7385,43.0
7386,43.0
7387,41.0
7388,41.0
7389,41.0
7390,43.0
7391,43.0
7392,42.0
7393,42.0
7394,41.0
7395,41.0
7396,43.0
7397,44.0
7398,45.0
7399,46.0
7400,47.0
7401,49.0
7402,48.0
7403,42.0
7404,42.0
7405,41.0
7406,40.0
7407,43.0
7408,41.0
7409,39.0
7410,42.0
7411,43.0
7412,45.0
7413,51.0
7414,53.0
7415,51.0
7416,43.0
7417,44.0
7418,41.0
7419,41.0
7420,38.0
7421,41.0
7422,42.0
7423,42.0
7424,41.0
7425,37.0
7426,39.0
7427,44.0
7428,47.0
7429,45.0
7430,44.0
7431,46.0
7432,42.0
7433,42.0
7434,38.0
7435,41.0
7436,38.0
7437,36.0
7438,42.0
7439,47.0
7440,49.0
7441,49.0
7442,44.0
7443,45.0
7444,48.0
7445,51.0
7446,48.0
7447,41.0
7448,41.0
7449,38.0
7450,38.0
7451,39.0
7452,41.0
7453,44.0
7454,49.0
7455,47.0
7456,45.0
7457,49.0
7458,52.0
7459,51.0
7460,46.0
7461,41.0
7462,42.0
7463,40.0
7464,44.0
7465,44.0
7466,47.0
7467,46.0
7468,40.0
7469,39.0
7470,41.0
7471,52.0
7472,49.0
7473,44.0
7474,44.0
7475,44.0
7476,41.0
7477,35.0
7478,36.0
7479,37.0
7480,39.0
7481,38.0
7482,39.0
7483,34.0
7484,37.0
7485,40.0
7486,34.0
7487,33.0
7488,35.0
7489,31.0
7490,36.0
7491,40.0
7492,38.0
7493,37.0
7494,38.0
7495,42.0
7496,45.0
7497,44.0
7498,42.0
7499,40.0
7500,48.0
7501,47.0
7502,47.0
7503,50.0
7504,51.0
7505,49.0
7506,48.0
7507,45.0
7508,44.0
7509,44.0
7510,39.0
7511,38.0
7512,42.0
7513,46.0
7514,48.0
7515,45.0
7516,43.0
7517,43.0
7518,43.0
7519,39.0
7520,40.0
7521,41.0
7522,41.0
7523,41.0
7524,42.0
7525,47.0
7526,49.0
7527,50.0
7528,47.0
7529,43.0
7530,44.0
7531,43.0
7532,45.0
7533,45.0
7534,42.0
7535,44.0
7536,44.0
7537,44.0
7538,46.0
7539,43.0
7540,43.0
7541,44.0
7542,42.0
7543,42.0
7544,46.0
7545,46.0
7546,43.0
7547,41.0
7548,37.0
7549,37.0
7550,39.0
7551,43.0
7552,47.0
7553,46.0
7554,50.0
7555,49.0
7556,50.0
7557,50.0
7558,47.0
7559,46.0
7560,46.0
7561,45.0
7562,47.0
7563,47.0
7564,45.0
7565,41.0
7566,42.0
7567,43.0
7568,45.0
7569,47.0
7570,48.0
7571,49.0
7572,51.0
7573,44.0
7574,42.0
7575,44.0
7576,48.0
7577,47.0
7578,48.0
7579,47.0
7580,45.0
7581,48.0
7582,48.0
7583,45.0
7584,43.0
7585,41.0
7586,43.0
7587,43.0
7588,46.0
7589,50.0
7590,44.0
7591,42.0
7592,39.0
7593,37.0
7594,44.0
7595,48.0
7596,46.0
7597,46.0
7598,48.0
7599,48.0
7600,46.0
7601,45.0
7602,45.0
7603,52.0
7604,56.0
7605,56.0
7606,53.0
7607,52.0
7608,49.0
7609,41.0
7610,46.0
7611,51.0
7612,48.0
7613,44.0
7614,47.0
7615,48.0
7616,45.0
7617,44.0
7618,49.0
7619,51.0
7620,53.0
7621,52.0
7622,54.0
7623,54.0
7624,52.0
7625,48.0
7626,48.0
7627,47.0
7628,49.0
7629,46.0
7630,44.0
7631,47.0
7632,48.0
7633,51.0
7634,45.0
7635,44.0
7636,48.0
7637,53.0
7638,58.0
7639,57.0
7640,55.0
7641,49.0
7642,45.0
7643,48.0
7644,49.0
7645,52.0
7646,54.0
7647,53.0
7648,49.0
7649,50.0
7650,46.0
7651,43.0
7652,47.0
7653,45.0
7654,43.0
7655,42.0
7656,45.0
7657,50.0
7658,49.0
7659,48.0
7660,48.0
7661,47.0
7662,49.0
7663,49.0
7664,46.0
7665,44.0
7666,47.0
7667,49.0
7668,48.0
7669,51.0
7670,52.0
7671,49.0
7672,46.0
7673,43.0
7674,43.0
7675,47.0
7676,48.0
7677,50.0
7678,47.0
7679,46.0
7680,47.0
7681,44.0
7682,39.0
7683,48.0
7684,49.0
7685,47.0
7686,48.0
7687,49.0
7688,49.0
7689,40.0
7690,30.0
7691,31.0
7692,37.0
7693,41.0
7694,42.0
7695,45.0
7696,44.0
7697,45.0
7698,48.0
7699,46.0
7700,42.0
7701,44.0
7702,45.0
7703,45.0
7704,47.0
7705,49.0
7706,46.0
7707,45.0
7708,42.0
7709,38.0
7710,39.0
7711,42.0
7712,41.0
7713,43.0
7714,43.0
7715,42.0
7716,40.0
7717,40.0
7718,40.0
7719,44.0
7720,46.0
7721,45.0
7722,43.0
7723,44.0
7724,47.0
7725,49.0
7726,48.0
7727,47.0
7728,45.0
7729,44.0
7730,43.0
7731,39.0
7732,41.0
7733,44.0
7734,45.0
7735,43.0
7736,39.0
7737,40.0
7738,43.0
7739,41.0
7740,44.0
7741,47.0
7742,48.0
7743,51.0
7744,50.0
7745,40.0
7746,40.0
7747,42.0
7748,42.0
7749,43.0
7750,41.0
7751,37.0
7752,42.0
7753,39.0
7754,40.0
7755,44.0
7756,47.0
7757,49.0
7758,51.0
7759,51.0
7760,49.0
7761,45.0
7762,42.0
7763,45.0
7764,41.0
7765,39.0
7766,44.0
7767,42.0
7768,43.0
7769,40.0
7770,42.0
7771,39.0
7772,36.0
7773,39.0
7774,41.0
7775,40.0
7776,41.0
7777,43.0
7778,43.0
7779,47.0
7780,48.0
7781,47.0
7782,47.0
7783,45.0
7784,42.0
7785,40.0
7786,44.0
7787,43.0
7788,42.0
7789,46.0
7790,44.0
7791,43.0
7792,48.0
7793,48.0
7794,51.0
7795,47.0
7796,45.0
7797,44.0
7798,40.0
7799,43.0
7800,38.0
7801,40.0
7802,44.0
7803,44.0
7804,46.0
7805,46.0
7806,50.0
7807,50.0
7808,49.0
7809,48.0
7810,47.0
7811,47.0
7812,47.0
7813,46.0
7814,42.0
7815,38.0
7816,39.0
7817,44.0
7818,46.0
7819,48.0
7820,49.0
7821,46.0
7822,45.0
7823,49.0
7824,45.0
7825,41.0
7826,39.0
7827,41.0
7828,45.0
7829,45.0
7830,45.0
7831,45.0
7832,42.0
7833,45.0
7834,46.0
7835,47.0
7836,46.0
7837,45.0
7838,51.0
7839,48.0
7840,42.0
7841,42.0
7842,40.0
7843,37.0
7844,39.0
7845,44.0
7846,47.0
7847,49.0
7848,42.0
7849,46.0
7850,53.0
7851,52.0
7852,48.0
7853,42.0
7854,43.0
7855,42.0
7856,39.0
7857,40.0
7858,40.0
7859,44.0
7860,45.0
7861,46.0
7862,41.0
7863,41.0
7864,44.0
7865,46.0
7866,44.0
7867,45.0
7868,45.0
7869,42.0
7870,43.0
7871,47.0
7872,45.0
7873,42.0
7874,40.0
7875,42.0
7876,45.0
7877,46.0
7878,47.0
7879,39.0
7880,39.0
7881,42.0
7882,41.0
7883,41.0
7884,37.0
7885,41.0
7886,43.0
7887,42.0
7888,40.0
7889,41.0
7890,41.0
7891,44.0
7892,44.0
7893,45.0
7894,45.0
7895,45.0
7896,44.0
7897,44.0
7898,41.0
7899,42.0
7900,45.0
7901,47.0
7902,47.0
7903,49.0
7904,41.0
7905,39.0
7906,42.0
7907,42.0
7908,39.0
7909,37.0
7910,39.0
7911,40.0
7912,39.0
7913,45.0
7914,46.0
7915,49.0
7916,50.0
7917,50.0
7918,47.0
7919,43.0
7920,39.0
7921,39.0
7922,43.0
7923,45.0
7924,42.0
7925,41.0
7926,40.0
7927,40.0
7928,39.0
7929,41.0
7930,48.0
7931,51.0
7932,53.0
7933,51.0
7934,51.0
7935,48.0
7936,44.0
7937,47.0
7938,45.0
7939,43.0
7940,41.0
7941,39.0
7942,35.0
7943,34.0
7944,34.0
7945,33.0
7946,32.0
7947,38.0
7948,37.0
7949,40.0
7950,36.0
7951,34.0
7952,34.0
7953,38.0
7954,40.0
7955,39.0
7956,37.0
7957,41.0
7958,39.0
7959,36.0
7960,39.0
7961,37.0
7962,39.0
7963,39.0
7964,38.0
7965,40.0
7966,41.0
7967,43.0
7968,43.0
7969,45.0
7970,48.0
7971,50.0
7972,50.0
7973,47.0
7974,45.0
7975,39.0
7976,40.0
7977,36.0
7978,34.0
7979,36.0
7980,40.0
7981,42.0
7982,41.0
7983,42.0
7984,44.0
7985,39.0
7986,39.0
7987,48.0
7988,51.0
7989,47.0
7990,45.0
7991,47.0
7992,46.0
7993,47.0
7994,42.0
7995,40.0
7996,40.0
7997,40.0
7998,41.0
7999,41.0
8000,42.0
8001,44.0
8002,45.0
8003,43.0
8004,37.0
8005,41.0
8006,43.0
8007,42.0
8008,43.0
8009,44.0
8010,42.0
8011,43.0
8012,46.0
8013,51.0
8014,52.0
8015,46.0
8016,40.0
8017,39.0
8018,47.0
8019,49.0
8020,43.0
8021,39.0
8022,41.0
8023,45.0
8024,43.0
8025,45.0
8026,45.0
8027,45.0
8028,45.0
8029,42.0
8030,42.0
8031,44.0
8032,46.0
8033,46.0
8034,43.0
8035,44.0
8036,48.0
8037,50.0
8038,47.0
8039,44.0
8040,44.0
8041,45.0
8042,43.0
8043,40.0
8044,41.0
8045,49.0
8046,48.0
8047,46.0
8048,47.0
8049,46.0
8050,47.0
8051,48.0
8052,49.0
8053,48.0
8054,44.0
8055,43.0
8056,45.0
8057,47.0
8058,51.0
8059,47.0
8060,48.0
8061,45.0
8062,37.0
8063,40.0
8064,42.0
8065,44.0
8066,44.0
8067,49.0
8068,51.0
8069,46.0
8070,43.0
8071,47.0
8072,47.0
8073,46.0
8074,46.0
8075,48.0
8076,49.0
8077,53.0
8078,49.0
8079,48.0
8080,50.0
8081,50.0
8082,49.0
8083,47.0
8084,48.0
8085,44.0
8086,45.0
8087,47.0
8088,52.0
8089,51.0
8090,49.0
8091,47.0
8092,50.0
8093,53.0
8094,54.0
8095,52.0
8096,49.0
8097,53.0
8098,51.0
8099,43.0
8100,46.0
8101,54.0
8102,52.0
8103,49.0
8104,46.0
8105,48.0
8106,53.0
8107,52.0
8108,52.0
8109,55.0
8110,53.0
8111,54.0
8112,55.0
8113,49.0
8114,50.0
8115,48.0
8116,46.0
8117,45.0
8118,48.0
8119,51.0
8120,47.0
8121,42.0
8122,45.0
8123,46.0
8124,49.0
8125,47.0
8126,50.0
8127,50.0
8128,47.0
8129,45.0
8130,46.0
8131,49.0
8132,47.0
8133,46.0
8134,45.0
8135,43.0
8136,46.0
8137,49.0
8138,48.0
8139,42.0
8140,40.0
8141,43.0
8142,42.0
8143,44.0
8144,46.0
8145,48.0
8146,47.0
8147,48.0
8148,48.0
8149,46.0
8150,48.0
8151,48.0
8152,44.0
8153,44.0
8154,42.0
8155,41.0
8156,40.0
8157,41.0
8158,46.0
8159,46.0
8160,41.0
8161,40.0
8162,43.0
8163,44.0
8164,42.0
8165,41.0
8166,43.0
8167,45.0
8168,45.0
8169,44.0
8170,43.0
8171,40.0
8172,42.0
8173,40.0
8174,40.0
8175,42.0
8176,39.0
8177,42.0
8178,43.0
8179,46.0
8180,49.0
8181,44.0
8182,38.0
8183,37.0
8184,42.0
8185,49.0
8186,47.0
8187,44.0
8188,40.0
8189,46.0
8190,39.0
8191,38.0
8192,43.0
8193,46.0
8194,42.0
8195,45.0
8196,45.0
8197,43.0
8198,42.0
8199,44.0
8200,47.0
8201,47.0
8202,48.0
8203,48.0
8204,46.0
8205,43.0
8206,41.0
8207,43.0
8208,39.0
8209,35.0
8210,37.0
8211,43.0
8212,40.0
8213,42.0
8214,42.0
8215,42.0
8216,44.0
8217,44.0
8218,38.0
8219,37.0
8220,48.0
8221,45.0
8222,40.0
8223,42.0
8224,47.0
8225,48.0
8226,47.0
8227,49.0
8228,43.0
8229,39.0
8230,39.0
8231,41.0
8232,36.0
8233,37.0
8234,42.0
8235,48.0
8236,45.0
8237,43.0
8238,44.0
8239,45.0
8240,46.0
8241,45.0
8242,43.0
8243,45.0
8244,42.0
8245,40.0
8246,42.0
8247,43.0
8248,40.0
8249,42.0
8250,44.0
8251,44.0
8252,42.0
8253,40.0
8254,40.0
8255,47.0
8256,49.0
8257,50.0
8258,46.0
8259,40.0
8260,38.0
8261,46.0
8262,51.0
8263,48.0
8264,44.0
8265,40.0
8266,43.0
8267,41.0
8268,40.0
8269,40.0
8270,39.0
8271,40.0
8272,41.0
8273,39.0
8274,39.0
8275,40.0
8276,40.0
8277,41.0
8278,42.0
8279,39.0
8280,40.0
8281,42.0
8282,47.0
8283,47.0
8284,42.0
8285,41.0
8286,45.0
8287,43.0
8288,39.0
8289,41.0
8290,40.0
8291,42.0
8292,37.0
8293,40.0
8294,43.0
8295,45.0
8296,47.0
8297,48.0
8298,49.0
8299,47.0
8300,46.0
8301,47.0
8302,48.0
8303,47.0
8304,45.0
8305,44.0
8306,43.0
8307,42.0
8308,39.0
8309,44.0
8310,49.0
8311,47.0
8312,45.0
8313,39.0
8314,41.0
8315,46.0
8316,49.0
8317,45.0
8318,42.0
8319,41.0
8320,40.0
8321,43.0
8322,41.0
8323,41.0
8324,43.0
8325,43.0
8326,38.0
8327,32.0
8328,35.0
8329,39.0
8330,40.0
8331,43.0
8332,40.0
8333,41.0
8334,44.0
8335,45.0
8336,41.0
8337,40.0
8338,40.0
8339,41.0
8340,37.0
8341,38.0
8342,35.0
8343,36.0
8344,39.0
8345,35.0
8346,38.0
8347,40.0
8348,39.0
8349,43.0
8350,48.0
8351,48.0
8352,46.0
8353,49.0
8354,42.0
8355,39.0
8356,36.0
8357,37.0
8358,43.0
8359,46.0
8360,38.0
8361,40.0
8362,40.0
8363,40.0
8364,42.0
8365,42.0
8366,45.0
8367,44.0
8368,40.0
8369,40.0
8370,43.0
8371,43.0
8372,39.0
8373,39.0
8374,40.0
8375,39.0
8376,38.0
8377,39.0
8378,42.0
8379,43.0
8380,37.0
8381,36.0
8382,38.0
8383,43.0
8384,43.0
8385,44.0
8386,41.0
8387,39.0
8388,38.0
8389,37.0
8390,37.0
8391,41.0
8392,38.0
8393,40.0
8394,40.0
8395,38.0
8396,39.0
8397,43.0
8398,44.0
8399,40.0
8400,40.0
8401,42.0
8402,43.0
8403,47.0
8404,47.0
8405,47.0
8406,45.0
8407,46.0
8408,45.0
8409,41.0
8410,41.0
8411,40.0
8412,38.0
8413,39.0
8414,40.0
8415,41.0
8416,43.0
8417,44.0
8418,39.0
8419,33.0
8420,32.0
8421,38.0
8422,39.0
8423,36.0
8424,32.0
8425,31.0
8426,29.0
8427,29.0
8428,34.0
8429,37.0
8430,31.0
8431,26.0
8432,25.0
8433,31.0
8434,32.0
8435,36.0
8436,41.0
8437,40.0
8438,37.0
8439,34.0
8440,34.0
8441,36.0
8442,37.0
8443,44.0
8444,43.0
8445,40.0
8446,39.0
8447,41.0
8448,43.0
8449,41.0
8450,41.0
8451,42.0
8452,38.0
8453,37.0
8454,38.0
8455,39.0
8456,39.0
8457,38.0
8458,35.0
8459,39.0
8460,42.0
8461,42.0
8462,38.0
8463,36.0
8464,39.0
8465,37.0
8466,37.0
8467,41.0
8468,41.0
8469,40.0
8470,41.0
8471,43.0
8472,45.0
8473,46.0
8474,41.0
8475,42.0
8476,42.0
8477,41.0
8478,36.0
8479,38.0
8480,40.0
8481,41.0
8482,39.0
8483,42.0
8484,44.0
8485,44.0
8486,43.0
8487,43.0
8488,42.0
8489,39.0
8490,36.0
8491,37.0
8492,43.0
8493,40.0
8494,33.0
8495,34.0
8496,39.0
8497,37.0
8498,40.0
8499,40.0
8500,40.0
8501,39.0
8502,38.0
8503,41.0
8504,41.0
8505,42.0
8506,43.0
8507,41.0
8508,44.0
8509,48.0
8510,50.0
8511,49.0
8512,44.0
8513,42.0
8514,42.0
8515,40.0
8516,36.0
8517,37.0
8518,43.0
8519,42.0
8520,42.0
8521,41.0
8522,37.0
8523,34.0
8524,38.0
8525,43.0
8526,39.0
8527,38.0
8528,36.0
8529,36.0
8530,36.0
8531,38.0
8532,43.0
8533,43.0
8534,40.0
8535,38.0
8536,38.0
8537,40.0
8538,43.0
8539,45.0
8540,46.0
8541,50.0
8542,51.0
8543,47.0
8544,46.0
8545,45.0
8546,45.0
8547,46.0
8548,44.0
8549,39.0
8550,40.0
8551,41.0
8552,42.0
8553,47.0
8554,46.0
8555,45.0
8556,45.0
8557,44.0
8558,43.0
8559,46.0
8560,46.0
8561,46.0
8562,44.0
8563,43.0
8564,44.0
8565,46.0
8566,48.0
8567,47.0
8568,46.0
8569,45.0
8570,42.0
8571,40.0
8572,42.0
8573,43.0
8574,42.0
8575,38.0
8576,37.0
8577,40.0
8578,39.0
8579,43.0
8580,45.0
8581,44.0
8582,50.0
8583,55.0
8584,46.0
8585,39.0
8586,44.0
8587,43.0
8588,39.0
8589,39.0
8590,43.0
8591,45.0
8592,45.0
8593,48.0
8594,50.0
8595,51.0
8596,51.0
8597,45.0
8598,45.0
8599,44.0
8600,41.0
8601,41.0
8602,43.0
8603,48.0
8604,46.0
8605,41.0
8606,36.0
8607,38.0
8608,44.0
8609,41.0
8610,40.0
8611,45.0
8612,45.0
8613,45.0
8614,44.0
8615,39.0
8616,41.0
8617,42.0
8618,39.0
8619,37.0
8620,37.0
8621,38.0
8622,38.0
8623,41.0
8624,42.0
8625,41.0
8626,37.0
8627,36.0
8628,36.0
8629,39.0
8630,39.0
8631,43.0
8632,44.0
8633,42.0
8634,42.0
8635,41.0
8636,41.0
8637,40.0
8638,40.0
8639,38.0
8640,36.0
8641,37.0
8642,38.0
8643,37.0
8644,38.0
8645,40.0
8646,38.0
8647,35.0
8648,39.0
8649,37.0
8650,36.0
8651,40.0
8652,38.0
8653,38.0
8654,38.0
8655,38.0
8656,36.0
8657,37.0
8658,38.0
8659,41.0
8660,36.0
8661,35.0
8662,35.0
8663,35.0
8664,40.0
8665,42.0
8666,39.0
8667,37.0
8668,36.0
8669,34.0
8670,37.0
8671,40.0
8672,43.0
8673,44.0
8674,39.0
8675,39.0
8676,44.0
8677,42.0
8678,42.0
8679,43.0
8680,42.0
8681,39.0
8682,34.0
8683,32.0
8684,34.0
8685,37.0
8686,38.0
8687,40.0
8688,36.0
8689,32.0
8690,41.0
8691,45.0
8692,40.0
8693,37.0
8694,36.0
8695,34.0
8696,38.0
8697,38.0
8698,39.0
8699,35.0
8700,34.0
8701,36.0
8702,42.0
8703,44.0
8704,40.0
8705,41.0
8706,42.0
8707,41.0
8708,42.0
8709,40.0
8710,42.0
8711,41.0
8712,37.0
8713,38.0
8714,40.0
8715,40.0
8716,37.0
8717,36.0
8718,39.0
8719,40.0
8720,36.0
8721,36.0
8722,39.0
8723,41.0
8724,39.0
8725,36.0
8726,36.0
8727,39.0
8728,38.0
8729,43.0
8730,43.0
8731,40.0
8732,43.0
8733,44.0
8734,39.0
8735,37.0
8736,40.0
8737,41.0
8738,40.0
8739,40.0
8740,39.0
8741,40.0
8742,36.0
8743,36.0
8744,45.0
8745,48.0
8746,48.0
8747,43.0
8748,39.0
8749,35.0
8750,38.0
8751,44.0
8752,43.0
8753,41.0
8754,43.0
8755,41.0
8756,41.0
8757,40.0
8758,39.0
8759,44.0
8760,37.0
8761,37.0
8762,37.0
8763,36.0
8764,36.0
8765,41.0
8766,41.0
8767,43.0
8768,42.0
8769,36.0
8770,36.0
8771,41.0
8772,37.0
8773,43.0
8774,48.0
8775,46.0
8776,41.0
8777,40.0
8778,39.0
8779,40.0
8780,43.0
8781,37.0
8782,35.0
8783,39.0
8784,40.0
8785,42.0
8786,38.0
8787,36.0
8788,35.0
8789,36.0
8790,36.0
8791,38.0
8792,41.0
8793,40.0
8794,37.0
8795,37.0
8796,37.0
8797,39.0
8798,42.0
8799,41.0
8800,39.0
8801,39.0
8802,38.0
8803,38.0
8804,38.0
8805,41.0
8806,38.0
8807,36.0
8808,36.0
8809,41.0
8810,47.0
8811,45.0
8812,38.0
8813,36.0
8814,31.0
8815,30.0
8816,36.0
8817,41.0
8818,43.0
8819,41.0
8820,37.0
8821,38.0
8822,36.0
8823,31.0
8824,33.0
8825,38.0
8826,40.0
8827,42.0
8828,42.0
8829,43.0
8830,44.0
8831,39.0
8832,38.0
8833,35.0
8834,31.0
8835,34.0
8836,39.0
8837,43.0
8838,44.0
8839,41.0
8840,38.0
8841,36.0
8842,35.0
8843,34.0
8844,36.0
8845,38.0
8846,39.0
8847,36.0
8848,35.0
8849,34.0
8850,33.0
8851,36.0
8852,39.0
8853,39.0
8854,39.0
8855,38.0
8856,36.0
8857,37.0
8858,42.0
8859,41.0
8860,38.0
8861,37.0
8862,39.0
8863,41.0
8864,38.0
8865,40.0
8866,40.0
8867,45.0
8868,40.0
8869,38.0
8870,39.0
8871,41.0
8872,39.0
8873,34.0
8874,35.0
8875,38.0
8876,41.0
8877,39.0
8878,37.0
8879,38.0
8880,40.0
8881,37.0
8882,33.0
8883,34.0
8884,34.0
8885,32.0
8886,30.0
8887,27.0
8888,24.0
8889,26.0
8890,30.0
8891,35.0
8892,32.0
8893,36.0
8894,35.0
8895,33.0
8896,31.0
8897,33.0
8898,38.0
8899,35.0
8900,29.0
8901,23.0
8902,30.0
8903,34.0
8904,37.0
8905,40.0
8906,43.0
8907,45.0
8908,41.0
8909,37.0
8910,33.0
8911,35.0
8912,37.0
8913,41.0
8914,37.0
8915,34.0
8916,40.0
8917,40.0
8918,42.0
8919,40.0
8920,42.0
8921,40.0
8922,38.0
8923,34.0
8924,35.0
8925,37.0
8926,38.0
8927,33.0
8928,32.0
8929,33.0
8930,37.0
8931,38.0
8932,38.0
8933,41.0
8934,38.0
8935,38.0
8936,41.0
8937,40.0
8938,38.0
8939,38.0
8940,39.0
8941,40.0
8942,38.0
8943,38.0
8944,44.0
8945,44.0
8946,39.0
8947,38.0
8948,41.0
8949,41.0
8950,41.0
8951,37.0
8952,35.0
8953,41.0
8954,41.0
8955,39.0
8956,40.0
8957,44.0
8958,40.0
8959,40.0
8960,41.0
8961,40.0
8962,39.0
8963,41.0
8964,44.0
8965,41.0
8966,35.0
8967,36.0
8968,36.0
8969,40.0
8970,43.0
8971,41.0
8972,37.0
8973,36.0
8974,39.0
8975,35.0
8976,37.0
8977,39.0
8978,40.0
8979,38.0
8980,39.0
8981,39.0
8982,43.0
8983,43.0
8984,41.0
8985,44.0
8986,40.0
8987,41.0
8988,42.0
8989,38.0
8990,36.0
8991,36.0
8992,36.0
8993,41.0
8994,44.0
8995,45.0
8996,40.0
8997,39.0
8998,38.0
8999,44.0
9000,47.0
9001,49.0
9002,44.0
9003,48.0
9004,42.0
9005,42.0
9006,41.0
9007,42.0
9008,41.0
9009,43.0
9010,42.0
9011,39.0
9012,37.0
9013,42.0
9014,44.0
9015,43.0
9016,47.0
9017,47.0
9018,43.0
9019,42.0
9020,36.0
9021,40.0
9022,44.0
9023,37.0
9024,48.0
9025,53.0
9026,45.0
9027,44.0
9028,42.0
9029,43.0
9030,44.0
9031,45.0
9032,46.0
9033,46.0
9034,46.0
9035,45.0
9036,41.0
9037,43.0
9038,43.0
9039,45.0
9040,46.0
9041,49.0
9042,48.0
9043,44.0
9044,43.0
9045,44.0
9046,44.0
9047,46.0
9048,47.0
9049,43.0
9050,42.0
9051,45.0
9052,45.0
9053,45.0
9054,46.0
9055,50.0
9056,49.0
9057,47.0
9058,47.0
9059,46.0
9060,52.0
9061,49.0
9062,45.0
9063,40.0
9064,41.0
9065,44.0
9066,44.0
9067,46.0
9068,44.0
9069,37.0
9070,38.0
9071,39.0
9072,42.0
9073,42.0
9074,43.0
9075,37.0
9076,40.0
9077,44.0
9078,40.0
9079,43.0
9080,39.0
9081,38.0
9082,41.0
9083,44.0
9084,40.0
9085,42.0
9086,42.0
9087,39.0
9088,38.0
9089,41.0
9090,43.0
9091,43.0
9092,45.0
9093,45.0
9094,36.0
9095,35.0
9096,40.0
9097,38.0
9098,35.0
9099,37.0
9100,38.0
9101,39.0
9102,41.0
9103,42.0
9104,45.0
9105,45.0
9106,43.0
9107,37.0
9108,37.0
9109,41.0
9110,42.0
9111,40.0
9112,35.0
9113,34.0
9114,39.0
9115,43.0
9116,43.0
9117,35.0
9118,35.0
9119,36.0
9120,36.0
9121,35.0
9122,29.0
9123,29.0
9124,36.0
9125,42.0
9126,42.0
9127,41.0
9128,39.0
9129,37.0
9130,38.0
9131,35.0
9132,32.0
9133,37.0
9134,39.0
9135,39.0
9136,43.0
9137,40.0
9138,38.0
9139,40.0
9140,32.0
9141,38.0
9142,41.0
9143,37.0
9144,40.0
9145,39.0
9146,42.0
9147,42.0
9148,41.0
9149,41.0
9150,41.0
9151,43.0
9152,42.0
9153,38.0
9154,39.0
9155,36.0
9156,33.0
9157,34.0
9158,36.0
9159,40.0
9160,46.0
9161,40.0
9162,35.0
9163,34.0
9164,40.0
9165,46.0
9166,46.0
9167,43.0
9168,40.0
9169,40.0
9170,35.0
9171,37.0
9172,33.0
9173,36.0
9174,41.0
9175,39.0
9176,36.0
9177,39.0
9178,39.0
9179,39.0
9180,35.0
9181,32.0
9182,33.0
9183,32.0
9184,37.0
9185,37.0
9186,32.0
9187,32.0
9188,38.0
9189,41.0
9190,45.0
9191,42.0
9192,43.0
9193,45.0
9194,39.0
9195,40.0
9196,39.0
9197,37.0
9198,34.0
9199,30.0
9200,34.0
9201,42.0
9202,36.0
9203,33.0
9204,35.0
9205,42.0
9206,47.0
9207,44.0
9208,40.0
9209,41.0
9210,43.0
9211,44.0
9212,42.0
9213,42.0
9214,44.0
9215,40.0
9216,36.0
9217,39.0
9218,40.0
9219,40.0
9220,41.0
9221,37.0
9222,33.0
9223,30.0
9224,31.0
9225,31.0
9226,34.0
9227,40.0
9228,40.0
9229,40.0
9230,42.0
9231,39.0
9232,34.0
9233,34.0
9234,34.0
9235,37.0
9236,38.0
9237,34.0
9238,32.0
9239,30.0
9240,38.0
9241,38.0
9242,36.0
9243,32.0
9244,33.0
9245,34.0
9246,35.0
9247,36.0
9248,36.0
9249,35.0
9250,44.0
9251,41.0
9252,36.0
9253,36.0
9254,34.0
9255,37.0
9256,33.0
9257,33.0
9258,39.0
9259,42.0
9260,41.0
9261,35.0
9262,35.0
9263,37.0
9264,37.0
9265,38.0
9266,32.0
9267,28.0
9268,35.0
9269,35.0
9270,37.0
9271,36.0
9272,34.0
9273,37.0
9274,38.0
9275,38.0
9276,38.0
9277,38.0
9278,40.0
9279,40.0
9280,43.0
9281,44.0
9282,41.0
9283,36.0
9284,33.0
9285,32.0
9286,32.0
9287,28.0
9288,25.0
9289,30.0
9290,31.0
9291,31.0
9292,31.0
9293,31.0
9294,32.0
9295,36.0
9296,35.0
9297,35.0
9298,35.0
9299,37.0
9300,37.0
9301,41.0
9302,37.0
9303,34.0
9304,33.0
9305,34.0
9306,35.0
9307,39.0
9308,41.0
9309,38.0
9310,35.0
9311,38.0
9312,35.0
9313,32.0
9314,30.0
9315,30.0
9316,32.0
9317,35.0
9318,35.0
9319,37.0
9320,36.0
9321,37.0
9322,39.0
9323,40.0
9324,40.0
9325,36.0
9326,37.0
9327,32.0
9328,36.0
9329,40.0
9330,35.0
9331,41.0
9332,38.0
9333,32.0
9334,27.0
9335,28.0
9336,32.0
9337,32.0
9338,32.0
9339,30.0
9340,27.0
9341,29.0
9342,28.0
9343,23.0
9344,25.0
9345,28.0
9346,25.0
9347,22.0
9348,23.0
9349,26.0
9350,28.0
9351,32.0
9352,34.0
9353,36.0
9354,34.0
9355,37.0
9356,38.0
9357,36.0
9358,32.0
9359,27.0
9360,26.0
9361,30.0
9362,35.0
9363,35.0
9364,37.0
9365,38.0
9366,38.0
9367,38.0
9368,37.0
9369,36.0
9370,35.0
9371,35.0
9372,37.0
9373,36.0
9374,37.0
9375,35.0
9376,33.0
9377,34.0
9378,35.0
9379,36.0
9380,35.0
9381,35.0
9382,31.0
9383,33.0
9384,36.0
9385,39.0
9386,39.0
9387,37.0
9388,34.0
9389,33.0
9390,32.0
9391,36.0
9392,35.0
9393,37.0
9394,37.0
9395,38.0
9396,40.0
9397,36.0
9398,35.0
9399,36.0
9400,36.0
9401,33.0
9402,33.0
9403,34.0
9404,34.0
9405,33.0
9406,36.0
9407,37.0
9408,38.0
9409,37.0
9410,36.0
9411,35.0
9412,37.0
9413,35.0
9414,36.0
9415,37.0
9416,34.0
9417,33.0
9418,35.0
9419,36.0
9420,34.0
9421,38.0
9422,39.0
9423,40.0
9424,36.0
9425,33.0
9426,33.0
9427,35.0
9428,36.0
9429,32.0
9430,33.0
9431,33.0
9432,35.0
9433,42.0
9434,42.0
9435,43.0
9436,41.0
9437,39.0
9438,37.0
9439,36.0
9440,33.0
9441,33.0
9442,34.0
9443,41.0
9444,46.0
9445,48.0
9446,49.0
9447,45.0
9448,41.0
9449,42.0
9450,41.0
9451,37.0
9452,34.0
9453,35.0
9454,34.0
9455,39.0
9456,38.0
9457,37.0
9458,40.0
9459,37.0
9460,36.0
9461,41.0
9462,41.0
9463,42.0
9464,43.0
9465,38.0
9466,33.0
9467,36.0
9468,36.0
9469,37.0
9470,43.0
9471,41.0
9472,41.0
9473,43.0
9474,42.0
9475,46.0
9476,47.0
9477,46.0
9478,42.0
9479,40.0
9480,41.0
9481,41.0
9482,44.0
9483,43.0
9484,45.0
9485,48.0
9486,47.0
9487,44.0
9488,45.0
9489,42.0
9490,41.0
9491,36.0
9492,34.0
9493,42.0
9494,38.0
9495,38.0
9496,34.0
9497,35.0
9498,36.0
9499,35.0
9500,39.0
9501,43.0
9502,49.0
9503,46.0
9504,44.0
9505,45.0
9506,42.0
9507,41.0
9508,41.0
9509,41.0
9510,42.0
9511,43.0
9512,46.0
9513,50.0
9514,45.0
9515,41.0
9516,39.0
9517,38.0
9518,36.0
9519,38.0
9520,44.0
9521,43.0
9522,41.0
9523,40.0
9524,38.0
9525,39.0
9526,39.0
9527,38.0
9528,37.0
9529,37.0
9530,33.0
9531,31.0
9532,38.0
9533,40.0
9534,35.0
9535,32.0
9536,31.0
9537,37.0
9538,36.0
9539,37.0
9540,39.0
9541,42.0
9542,42.0
9543,42.0
9544,38.0
9545,30.0
9546,29.0
9547,33.0
9548,35.0
9549,36.0
9550,30.0
9551,28.0
9552,32.0
9553,39.0
9554,43.0
9555,42.0
9556,41.0
9557,38.0
9558,36.0
9559,40.0
9560,38.0
9561,38.0
9562,35.0
9563,34.0
9564,32.0
9565,30.0
9566,33.0
9567,33.0
9568,30.0
9569,33.0
9570,37.0
9571,35.0
9572,35.0
9573,39.0
9574,37.0
9575,34.0
9576,35.0
9577,37.0
9578,36.0
9579,37.0
9580,40.0
9581,38.0
9582,35.0
9583,38.0
9584,37.0
9585,37.0
9586,33.0
9587,35.0
9588,37.0
9589,33.0
9590,33.0
9591,33.0
9592,31.0
9593,35.0
9594,37.0
9595,37.0
9596,36.0
9597,34.0
9598,35.0
9599,33.0
9600,33.0
9601,34.0
9602,36.0
9603,35.0
9604,32.0
9605,33.0
9606,37.0
9607,38.0
9608,38.0
9609,36.0
9610,35.0
9611,33.0
9612,36.0
9613,37.0
9614,33.0
9615,33.0
9616,36.0
9617,35.0
9618,32.0
9619,28.0
9620,34.0
9621,35.0
9622,39.0
9623,44.0
9624,42.0
9625,37.0
9626,36.0
9627,37.0
9628,40.0
9629,41.0
9630,36.0
9631,33.0
9632,31.0
9633,31.0
9634,37.0
9635,39.0
9636,40.0
9637,38.0
9638,34.0
9639,33.0
9640,34.0
9641,37.0
9642,33.0
9643,38.0
9644,42.0
9645,42.0
9646,39.0
9647,37.0
9648,35.0
9649,38.0
9650,36.0
9651,38.0
9652,37.0
9653,35.0
9654,30.0
9655,32.0
9656,35.0
9657,35.0
9658,35.0
9659,31.0
9660,28.0
9661,35.0
9662,39.0
9663,39.0
9664,44.0
9665,43.0
9666,40.0
9667,40.0
9668,41.0
9669,43.0
9670,42.0
9671,38.0
9672,34.0
9673,38.0
9674,37.0
9675,35.0
9676,34.0
9677,34.0
9678,35.0
9679,33.0
9680,37.0
9681,39.0
9682,39.0
9683,36.0
9684,38.0
9685,40.0
9686,46.0
9687,35.0
9688,34.0
9689,33.0
9690,31.0
9691,36.0
9692,37.0
9693,38.0
9694,34.0
9695,35.0
9696,37.0
9697,42.0
9698,38.0
9699,36.0
9700,37.0
9701,37.0
9702,37.0
9703,40.0
9704,40.0
9705,39.0
9706,38.0
9707,34.0
9708,30.0
9709,30.0
9710,31.0
9711,34.0
9712,37.0
9713,37.0
9714,35.0
9715,38.0
9716,39.0
9717,39.0
9718,33.0
9719,30.0
9720,31.0
9721,36.0
9722,33.0
9723,34.0
9724,34.0
9725,33.0
9726,34.0
9727,36.0
9728,33.0
9729,33.0
9730,33.0
9731,33.0
9732,35.0
9733,38.0
9734,37.0
9735,31.0
9736,26.0
9737,30.0
9738,32.0
9739,38.0
9740,42.0
9741,37.0
9742,33.0
9743,32.0
9744,35.0
9745,38.0
9746,35.0
9747,34.0
9748,34.0
9749,30.0
9750,34.0
9751,33.0
9752,34.0
9753,34.0
9754,36.0
9755,36.0
9756,35.0
9757,41.0
9758,36.0
9759,33.0
9760,34.0
9761,34.0
9762,38.0
9763,37.0
9764,36.0
9765,34.0
9766,35.0
9767,38.0
9768,38.0
9769,39.0
9770,37.0
9771,33.0
9772,36.0
9773,36.0
9774,35.0
9775,38.0
9776,36.0
9777,35.0
9778,30.0
9779,33.0
9780,39.0
9781,36.0
9782,37.0
9783,39.0
9784,38.0
9785,31.0
9786,29.0
9787,30.0
9788,33.0
9789,37.0
9790,35.0
9791,36.0
9792,32.0
9793,34.0
9794,32.0
9795,30.0
9796,28.0
9797,32.0
9798,32.0
9799,33.0
9800,34.0
9801,34.0
9802,34.0
9803,31.0
9804,27.0
9805,25.0
9806,25.0
9807,22.0
9808,25.0
9809,31.0
9810,38.0
9811,36.0
9812,35.0
9813,37.0
9814,36.0
9815,38.0
9816,37.0
9817,37.0
9818,34.0
9819,33.0
9820,35.0
9821,35.0
9822,34.0
9823,37.0
9824,32.0
9825,29.0
9826,29.0
9827,34.0
9828,35.0
9829,35.0
9830,34.0
9831,29.0
9832,29.0
9833,37.0
9834,37.0
9835,34.0
9836,30.0
9837,35.0
9838,44.0
9839,41.0
9840,38.0
9841,36.0
9842,35.0
9843,34.0
9844,34.0
9845,35.0
9846,34.0
9847,35.0
9848,33.0
9849,31.0
9850,30.0
9851,36.0
9852,36.0
9853,35.0
9854,38.0
9855,43.0
9856,40.0
9857,37.0
9858,37.0
9859,36.0
9860,30.0
9861,28.0
9862,29.0
9863,33.0
9864,36.0
9865,40.0
9866,40.0
9867,40.0
9868,39.0
9869,42.0
9870,38.0
9871,30.0
9872,30.0
9873,32.0
9874,34.0
9875,35.0
9876,33.0
9877,30.0
9878,33.0
9879,39.0
9880,39.0
9881,35.0
9882,39.0
9883,41.0
9884,37.0
9885,33.0
9886,34.0
9887,36.0
9888,38.0
9889,44.0
9890,40.0
9891,39.0
9892,38.0
9893,35.0
9894,35.0
9895,39.0
9896,37.0
9897,32.0
9898,35.0
9899,35.0
9900,29.0
9901,31.0
9902,35.0
9903,36.0
9904,34.0
9905,39.0
9906,41.0
9907,40.0
9908,41.0
9909,37.0
9910,39.0
9911,42.0
9912,39.0
9913,40.0
9914,36.0
9915,34.0
9916,37.0
9917,38.0
9918,37.0
9919,36.0
9920,37.0
9921,37.0
9922,43.0
9923,41.0
9924,37.0
9925,34.0
9926,36.0
9927,33.0
9928,35.0
9929,36.0
9930,38.0
9931,43.0
9932,44.0
9933,40.0
9934,42.0
9935,46.0
9936,45.0
9937,46.0
9938,47.0
9939,42.0
9940,42.0
9941,41.0
9942,38.0
9943,37.0
9944,31.0
9945,31.0
9946,32.0
9947,36.0
9948,48.0
9949,49.0
9950,44.0
9951,41.0
9952,43.0
9953,44.0
9954,45.0
9955,38.0
9956,36.0
9957,36.0
9958,36.0
9959,41.0
9960,44.0
9961,42.0
9962,43.0
9963,40.0
9964,41.0
9965,40.0
9966,40.0
9967,42.0
9968,43.0
9969,41.0
9970,42.0
9971,44.0
9972,46.0
9973,47.0
9974,43.0
9975,41.0
9976,41.0
9977,42.0
9978,40.0
9979,36.0
9980,33.0
9981,35.0
9982,34.0
9983,32.0
9984,35.0
9985,40.0
9986,41.0
9987,39.0
9988,41.0
9989,41.0
9990,37.0
9991,38.0
9992,39.0
9993,36.0
9994,34.0
9995,33.0
9996,38.0
9997,39.0
9998,42.0
9999,42.0
10000,42.0
10001,42.0
10002,38.0
10003,31.0
10004,31.0
10005,33.0
10006,36.0
10007,33.0
10008,36.0
10009,38.0
10010,40.0
10011,34.0
10012,38.0
10013,38.0
10014,38.0
10015,39.0
10016,37.0
10017,38.0
10018,40.0
10019,38.0
10020,35.0
10021,39.0
10022,36.0
10023,38.0
10024,35.0
10025,30.0
10026,30.0
10027,32.0
10028,30.0
10029,34.0
10030,36.0
10031,33.0
10032,32.0
10033,33.0
10034,34.0
10035,36.0
10036,35.0
10037,30.0
10038,29.0
10039,33.0
10040,34.0
10041,32.0
10042,35.0
10043,36.0
10044,41.0
10045,38.0
10046,39.0
10047,37.0
10048,35.0
10049,34.0
10050,34.0
10051,34.0
10052,36.0
10053,34.0
10054,36.0
10055,38.0
10056,39.0
10057,39.0
10058,40.0
10059,40.0
10060,38.0
10061,37.0
10062,40.0
10063,35.0
10064,36.0
10065,33.0
10066,32.0
10067,31.0
10068,32.0
10069,31.0
10070,33.0
10071,33.0
10072,36.0
10073,37.0
10074,37.0
10075,36.0
10076,38.0
10077,35.0
10078,35.0
10079,39.0
10080,41.0
10081,35.0
10082,31.0
10083,35.0
10084,32.0
10085,31.0
10086,31.0
10087,32.0
10088,31.0
10089,35.0
10090,36.0
10091,33.0
10092,34.0
10093,34.0
10094,31.0
10095,35.0
10096,38.0
10097,38.0
10098,35.0
10099,36.0
10100,37.0
10101,36.0
10102,30.0
10103,28.0
10104,29.0
10105,31.0
10106,33.0
10107,39.0
10108,43.0
10109,37.0
10110,35.0
10111,39.0
10112,37.0
10113,39.0
10114,40.0
10115,30.0
10116,32.0
10117,34.0
10118,31.0
10119,36.0
10120,33.0
10121,33.0
10122,34.0
10123,37.0
10124,38.0
10125,38.0
10126,37.0
10127,37.0
10128,41.0
10129,39.0
10130,34.0
10131,35.0
10132,35.0
10133,31.0
10134,24.0
10135,28.0
10136,34.0
10137,35.0
10138,33.0
10139,33.0
10140,34.0
10141,36.0
10142,35.0
10143,36.0
10144,35.0
10145,32.0
10146,31.0
10147,34.0
10148,40.0
10149,40.0
10150,41.0
10151,41.0
10152,42.0
10153,41.0
10154,38.0
10155,31.0
10156,31.0
10157,33.0
10158,36.0
10159,36.0
10160,37.0
10161,36.0
10162,37.0
10163,37.0
10164,41.0
10165,36.0
10166,34.0
10167,29.0
10168,34.0
10169,32.0
10170,31.0
10171,30.0
10172,30.0
10173,29.0
10174,32.0
10175,38.0
10176,35.0
10177,32.0
10178,30.0
10179,30.0
10180,36.0
10181,38.0
10182,40.0
10183,41.0
10184,35.0
10185,33.0
10186,34.0
10187,31.0
10188,32.0
10189,34.0
10190,35.0
10191,33.0
10192,33.0
10193,36.0
10194,35.0
10195,37.0
10196,33.0
10197,33.0
10198,30.0
10199,28.0
10200,30.0
10201,31.0
10202,29.0
10203,31.0
10204,32.0
10205,32.0
10206,29.0
10207,25.0
10208,30.0
10209,29.0
10210,32.0
10211,38.0
10212,40.0
10213,37.0
10214,34.0
10215,34.0
10216,36.0
10217,34.0
10218,32.0
10219,33.0
10220,35.0
10221,34.0
10222,33.0
10223,32.0
10224,28.0
10225,31.0
10226,34.0
10227,33.0
10228,33.0
10229,30.0
10230,33.0
10231,34.0
10232,33.0
10233,36.0
10234,36.0
10235,36.0
10236,34.0
10237,29.0
10238,31.0
10239,34.0
10240,36.0
10241,33.0
10242,31.0
10243,36.0
10244,37.0
10245,36.0
10246,32.0
10247,36.0
10248,43.0
10249,42.0
10250,41.0
10251,36.0
10252,31.0
10253,30.0
10254,29.0
10255,28.0
10256,33.0
10257,38.0
10258,37.0
10259,32.0
10260,32.0
10261,32.0
10262,34.0
10263,31.0
10264,26.0
10265,25.0
10266,28.0
10267,33.0
10268,30.0
10269,30.0
10270,29.0
10271,29.0
10272,30.0
10273,29.0
10274,26.0
10275,23.0
10276,22.0
10277,23.0
10278,22.0
10279,25.0
10280,22.0
10281,24.0
10282,27.0
10283,28.0
10284,35.0
10285,34.0
10286,34.0
10287,33.0
10288,33.0
10289,36.0
10290,35.0
10291,33.0
10292,34.0
10293,34.0
10294,32.0
10295,32.0
10296,33.0
10297,30.0
10298,31.0
10299,33.0
10300,32.0
10301,32.0
10302,27.0
10303,32.0
10304,32.0
10305,32.0
10306,32.0
10307,29.0
10308,32.0
10309,35.0
10310,36.0
10311,36.0
10312,39.0
10313,39.0
10314,33.0
10315,33.0
10316,31.0
10317,29.0
10318,28.0
10319,33.0
10320,28.0
10321,29.0
10322,28.0
10323,29.0
10324,31.0
10325,30.0
10326,31.0
10327,35.0
10328,37.0
10329,36.0
10330,37.0
10331,37.0
10332,34.0
10333,32.0
10334,27.0
10335,32.0
10336,34.0
10337,30.0
10338,32.0
10339,38.0
10340,39.0
10341,39.0
10342,39.0
10343,38.0
10344,37.0
10345,30.0
10346,30.0
10347,25.0
10348,28.0
10349,36.0
10350,33.0
10351,30.0
10352,30.0
10353,32.0
10354,37.0
10355,38.0
10356,37.0
10357,37.0
10358,36.0
10359,31.0
10360,31.0
10361,30.0
10362,31.0
10363,31.0
10364,30.0
10365,32.0
10366,31.0
10367,30.0
10368,35.0
10369,38.0
10370,37.0
10371,35.0
10372,33.0
10373,37.0
10374,43.0
10375,41.0
10376,38.0
10377,38.0
10378,38.0
10379,39.0
10380,42.0
10381,39.0
10382,34.0
10383,31.0
10384,29.0
10385,29.0
10386,33.0
10387,33.0
10388,28.0
10389,32.0
10390,35.0
10391,35.0
10392,37.0
10393,39.0
10394,40.0
10395,40.0
10396,40.0
10397,41.0
10398,40.0
10399,39.0
10400,40.0
10401,42.0
10402,35.0
10403,32.0
10404,35.0
10405,33.0
10406,32.0
10407,36.0
10408,38.0
10409,40.0
10410,39.0
10411,35.0
10412,32.0
10413,32.0
10414,38.0
10415,40.0
10416,42.0
10417,44.0
10418,40.0
10419,37.0
10420,38.0
10421,44.0
10422,45.0
10423,40.0
10424,36.0
10425,40.0
10426,38.0
10427,40.0
10428,45.0
10429,46.0
10430,42.0
10431,38.0
10432,37.0
10433,33.0
10434,36.0
10435,39.0
10436,41.0
10437,38.0
10438,37.0
10439,40.0
10440,38.0
10441,42.0
10442,42.0
10443,40.0
10444,40.0
10445,36.0
10446,37.0
10447,39.0
10448,37.0
10449,36.0
10450,37.0
10451,40.0
10452,41.0
10453,35.0
10454,34.0
10455,35.0
10456,33.0
10457,32.0
10458,35.0
10459,33.0
10460,31.0
10461,34.0
10462,36.0
10463,35.0
10464,29.0
10465,31.0
10466,39.0
10467,37.0
10468,32.0
10469,33.0
10470,36.0
10471,36.0
10472,34.0
10473,33.0
10474,31.0
10475,30.0
10476,29.0
10477,34.0
10478,35.0
10479,34.0
10480,33.0
10481,26.0
10482,23.0
10483,28.0
10484,29.0
10485,30.0
10486,31.0
10487,30.0
10488,28.0
10489,31.0
10490,34.0
10491,38.0
10492,38.0
10493,34.0
10494,33.0
10495,38.0
10496,41.0
10497,37.0
10498,35.0
10499,32.0
10500,32.0
10501,33.0
10502,33.0
10503,30.0
10504,32.0
10505,29.0
10506,29.0
10507,27.0
10508,26.0
10509,29.0
10510,29.0
10511,27.0
10512,28.0
10513,30.0
10514,32.0
10515,28.0
10516,25.0
10517,28.0
10518,35.0
10519,34.0
10520,30.0
10521,33.0
10522,27.0
10523,30.0
10524,27.0
10525,26.0
10526,26.0
10527,27.0
10528,29.0
10529,32.0
10530,34.0
10531,34.0
10532,35.0
10533,36.0
10534,33.0
10535,35.0
10536,33.0
10537,34.0
10538,35.0
10539,36.0
10540,31.0
10541,30.0
10542,30.0
10543,32.0
10544,31.0
10545,31.0
10546,34.0
10547,34.0
10548,29.0
10549,27.0
10550,28.0
10551,31.0
10552,29.0
10553,29.0
10554,32.0
10555,33.0
10556,33.0
10557,33.0
10558,33.0
10559,36.0
10560,34.0
10561,31.0
10562,26.0
10563,27.0
10564,28.0
10565,32.0
10566,29.0
10567,25.0
10568,26.0
10569,31.0
10570,30.0
10571,30.0
10572,31.0
10573,34.0
10574,32.0
10575,32.0
10576,33.0
10577,35.0
10578,32.0
10579,29.0
10580,27.0
10581,26.0
10582,21.0
10583,18.0
10584,21.0
10585,31.0
10586,27.0
10587,28.0
10588,29.0
10589,24.0
10590,20.0
10591,22.0
10592,29.0
10593,34.0
10594,33.0
10595,33.0
10596,32.0
10597,32.0
10598,34.0
10599,34.0
10600,35.0
10601,33.0
10602,30.0
10603,31.0
10604,34.0
10605,31.0
10606,31.0
10607,30.0
10608,31.0
10609,31.0
10610,30.0
10611,28.0
10612,26.0
10613,23.0
10614,28.0
10615,32.0
10616,34.0
10617,32.0
10618,29.0
10619,33.0
10620,33.0
10621,31.0
10622,32.0
10623,35.0
10624,34.0
10625,32.0
10626,33.0
10627,29.0
10628,30.0
10629,29.0
10630,33.0
10631,29.0
10632,26.0
10633,29.0
10634,29.0
10635,32.0
10636,31.0
10637,34.0
10638,33.0
10639,30.0
10640,31.0
10641,31.0
10642,29.0
10643,31.0
10644,27.0
10645,29.0
10646,30.0
10647,27.0
10648,27.0
10649,29.0
10650,29.0
10651,31.0
10652,36.0
10653,38.0
10654,33.0
10655,29.0
10656,30.0
10657,26.0
10658,26.0
10659,28.0
10660,24.0
10661,29.0
10662,27.0
10663,31.0
10664,30.0
10665,32.0
10666,29.0
10667,24.0
10668,29.0
10669,27.0
10670,25.0
10671,23.0
10672,26.0
10673,30.0
10674,29.0
10675,29.0
10676,33.0
10677,34.0
10678,29.0
10679,31.0
10680,33.0
10681,31.0
10682,32.0
10683,26.0
10684,24.0
10685,27.0
10686,26.0
10687,28.0
10688,30.0
10689,29.0
10690,29.0
10691,28.0
10692,27.0
10693,25.0
10694,25.0
10695,24.0
10696,24.0
10697,31.0
10698,30.0
10699,25.0
10700,22.0
10701,28.0
10702,28.0
10703,26.0
10704,32.0
10705,28.0
10706,26.0
10707,25.0
10708,27.0
10709,29.0
10710,30.0
10711,28.0
10712,29.0
10713,26.0
10714,21.0
10715,26.0
10716,30.0
10717,32.0
10718,31.0
10719,22.0
10720,29.0
10721,32.0
10722,33.0
10723,33.0
10724,30.0
10725,26.0
10726,27.0
10727,32.0
10728,33.0
10729,32.0
10730,33.0
10731,34.0
10732,31.0
10733,30.0
10734,32.0
10735,31.0
10736,23.0
10737,25.0
10738,27.0
10739,26.0
10740,28.0
10741,27.0
10742,28.0
10743,35.0
10744,34.0
10745,31.0
10746,27.0
10747,27.0
10748,29.0
10749,29.0
10750,28.0
10751,31.0
10752,26.0
10753,25.0
10754,23.0
10755,24.0
10756,24.0
10757,20.0
10758,18.0
10759,17.0
10760,20.0
10761,26.0
10762,31.0
10763,32.0
10764,25.0
10765,23.0
10766,16.0
10767,18.0
10768,20.0
10769,18.0
10770,24.0
10771,24.0
10772,20.0
10773,19.0
10774,25.0
10775,30.0
10776,28.0
10777,27.0
10778,25.0
10779,24.0
10780,26.0
10781,30.0
10782,29.0
10783,27.0
10784,28.0
10785,27.0
10786,29.0
10787,24.0
10788,25.0
10789,28.0
10790,26.0
10791,26.0
10792,30.0
10793,24.0
10794,29.0
10795,31.0
10796,25.0
10797,22.0
10798,25.0
10799,28.0
10800,26.0
10801,25.0
10802,30.0
10803,33.0
10804,32.0
10805,34.0
10806,27.0
10807,29.0
10808,31.0
10809,32.0
10810,29.0
10811,25.0
10812,24.0
10813,25.0
10814,28.0
10815,32.0
10816,40.0
10817,38.0
10818,34.0
10819,27.0
10820,22.0
10821,25.0
10822,28.0
10823,26.0
10824,28.0
10825,30.0
10826,31.0
10827,37.0
10828,32.0
10829,28.0
10830,31.0
10831,28.0
10832,27.0
10833,29.0
10834,32.0
10835,32.0
10836,29.0
10837,26.0
10838,28.0
10839,30.0
10840,26.0
10841,29.0
10842,30.0
10843,29.0
10844,30.0
10845,31.0
10846,31.0
10847,30.0
10848,29.0
10849,30.0
10850,29.0
10851,30.0
10852,30.0
10853,27.0
10854,26.0
10855,28.0
10856,27.0
10857,29.0
10858,30.0
10859,30.0
10860,27.0
10861,25.0
10862,32.0
10863,30.0
10864,29.0
10865,31.0
10866,32.0
10867,33.0
10868,33.0
10869,36.0
10870,34.0
10871,34.0
10872,32.0
10873,32.0
10874,28.0
10875,30.0
10876,29.0
10877,28.0
10878,32.0
10879,29.0
10880,31.0
10881,35.0
10882,35.0
10883,39.0
10884,35.0
10885,33.0
10886,29.0
10887,22.0
10888,20.0
10889,30.0
10890,37.0
10891,31.0
10892,33.0
10893,41.0
10894,39.0
10895,33.0
10896,30.0
10897,33.0
10898,35.0
10899,39.0
10900,37.0
10901,37.0
10902,40.0
10903,38.0
10904,36.0
10905,33.0
10906,31.0
10907,30.0
10908,32.0
10909,30.0
10910,34.0
10911,35.0
10912,34.0
10913,34.0
10914,36.0
10915,36.0
10916,36.0
10917,34.0
10918,34.0
10919,36.0
10920,35.0
10921,36.0
10922,32.0
10923,35.0
10924,32.0
10925,30.0
10926,32.0
10927,32.0
10928,29.0
10929,36.0
10930,41.0
10931,36.0
10932,35.0
10933,36.0
10934,36.0
10935,37.0
10936,32.0
10937,34.0
10938,34.0
10939,28.0
10940,28.0
10941,31.0
10942,32.0
10943,31.0
10944,31.0
10945,28.0
10946,32.0
10947,32.0
10948,32.0
10949,31.0
10950,31.0
10951,34.0
10952,38.0
10953,34.0
10954,32.0
10955,28.0
10956,29.0
10957,29.0
10958,30.0
10959,29.0
10960,26.0
10961,31.0
10962,32.0
10963,29.0
10964,29.0
10965,28.0
10966,34.0
10967,37.0
10968,32.0
10969,27.0
10970,27.0
10971,27.0
10972,22.0
10973,21.0
10974,25.0
10975,28.0
10976,31.0
10977,30.0
10978,30.0
10979,33.0
10980,30.0
10981,28.0
10982,24.0
10983,25.0
10984,29.0
10985,36.0
10986,33.0
10987,28.0
10988,30.0
10989,29.0
10990,29.0
10991,29.0
10992,29.0
10993,26.0
10994,22.0
10995,24.0
10996,22.0
10997,22.0
10998,21.0
10999,21.0
11000,26.0
11001,21.0
11002,27.0
11003,30.0
11004,29.0
11005,30.0
11006,29.0
11007,27.0
11008,29.0
11009,31.0
11010,24.0
11011,23.0
11012,30.0
11013,32.0
11014,25.0
11015,26.0
11016,32.0
11017,29.0
11018,25.0
11019,29.0
11020,27.0
11021,29.0
11022,29.0
11023,28.0
11024,28.0
11025,31.0
11026,31.0
11027,28.0
11028,22.0
11029,26.0
11030,30.0
11031,27.0
11032,25.0
11033,24.0
11034,27.0
11035,25.0
11036,28.0
11037,30.0
11038,29.0
11039,24.0
11040,26.0
11041,26.0
11042,23.0
11043,31.0
11044,29.0
11045,27.0
11046,24.0
11047,29.0
11048,30.0
11049,32.0
11050,29.0
11051,27.0
11052,24.0
11053,27.0
11054,26.0
11055,26.0
11056,26.0
11057,25.0
11058,25.0
11059,25.0
11060,28.0
11061,29.0
11062,26.0
11063,27.0
11064,24.0
11065,25.0
11066,27.0
11067,33.0
11068,37.0
11069,33.0
11070,29.0
11071,23.0
11072,22.0
11073,22.0
11074,24.0
11075,22.0
11076,22.0
11077,24.0
11078,26.0
11079,25.0
11080,28.0
11081,25.0
11082,26.0
11083,29.0
11084,34.0
11085,32.0
11086,31.0
11087,28.0
11088,29.0
11089,29.0
11090,25.0
11091,26.0
11092,26.0
11093,22.0
11094,29.0
11095,32.0
11096,31.0
11097,29.0
11098,28.0
11099,27.0
11100,27.0
11101,27.0
11102,32.0
11103,34.0
11104,27.0
11105,24.0
11106,24.0
11107,25.0
11108,23.0
11109,25.0
11110,28.0
11111,24.0
11112,23.0
11113,26.0
11114,26.0
11115,29.0
11116,27.0
11117,24.0
11118,19.0
11119,21.0
11120,26.0
11121,28.0
11122,29.0
11123,28.0
11124,29.0
11125,28.0
11126,30.0
11127,30.0
11128,30.0
11129,30.0
11130,31.0
11131,29.0
11132,28.0
11133,31.0
11134,27.0
11135,28.0
11136,30.0
11137,29.0
11138,29.0
11139,28.0
11140,32.0
11141,30.0
11142,27.0
11143,23.0
11144,21.0
11145,22.0
11146,27.0
11147,31.0
11148,28.0
11149,26.0
11150,28.0
11151,30.0
11152,30.0
11153,25.0
11154,24.0
11155,32.0
11156,26.0
11157,23.0
11158,20.0
11159,20.0
11160,21.0
11161,27.0
11162,28.0
11163,29.0
11164,28.0
11165,27.0
11166,26.0
11167,26.0
11168,25.0
11169,29.0
11170,30.0
11171,29.0
11172,26.0
11173,24.0
11174,22.0
11175,22.0
11176,21.0
11177,19.0
11178,24.0
11179,29.0
11180,26.0
11181,22.0
11182,24.0
11183,24.0
11184,24.0
11185,24.0
11186,26.0
11187,27.0
11188,25.0
11189,25.0
11190,21.0
11191,24.0
11192,25.0
11193,28.0
11194,24.0
11195,30.0
11196,29.0
11197,27.0
11198,27.0
11199,27.0
11200,27.0
11201,26.0
11202,23.0
11203,23.0
11204,24.0
11205,25.0
11206,26.0
11207,24.0
11208,28.0
11209,26.0
11210,25.0
11211,29.0
11212,29.0
11213,26.0
11214,25.0
11215,26.0
11216,23.0
11217,25.0
11218,27.0
11219,27.0
11220,20.0
11221,23.0
11222,25.0
11223,25.0
11224,24.0
11225,17.0
11226,22.0
11227,31.0
11228,28.0
11229,24.0
11230,22.0
11231,28.0
11232,31.0
11233,31.0
11234,30.0
11235,31.0
11236,29.0
11237,29.0
11238,31.0
11239,27.0
11240,25.0
11241,25.0
11242,26.0
11243,28.0
11244,27.0
11245,25.0
11246,23.0
11247,28.0
11248,29.0
11249,28.0
11250,26.0
11251,18.0
11252,17.0
11253,13.0
11254,10.0
11255,14.0
11256,18.0
11257,18.0
11258,15.0
11259,15.0
11260,13.0
11261,11.0
11262,15.0
11263,17.0
11264,21.0
11265,24.0
11266,28.0
11267,29.0
11268,28.0
11269,29.0
11270,27.0
11271,29.0
11272,24.0
11273,24.0
11274,26.0
11275,26.0
11276,21.0
11277,23.0
11278,25.0
11279,24.0
11280,23.0
11281,24.0
11282,25.0
11283,24.0
11284,27.0
11285,26.0
11286,27.0
11287,27.0
11288,28.0
11289,29.0
11290,28.0
11291,25.0
11292,24.0
11293,33.0
11294,30.0
11295,30.0
11296,29.0
11297,25.0
11298,22.0
11299,17.0
11300,22.0
11301,24.0
11302,20.0
11303,24.0
11304,24.0
11305,20.0
11306,24.0
11307,25.0
11308,30.0
11309,31.0
11310,30.0
11311,33.0
11312,31.0
11313,27.0
11314,21.0
11315,20.0
11316,18.0
11317,23.0
11318,26.0
11319,29.0
11320,28.0
11321,26.0
11322,28.0
11323,29.0
11324,23.0
11325,25.0
11326,32.0
11327,32.0
11328,32.0
11329,33.0
11330,27.0
11331,29.0
11332,28.0
11333,30.0
11334,23.0
11335,24.0
11336,25.0
11337,25.0
11338,26.0
11339,31.0
11340,30.0
11341,30.0
11342,30.0
11343,28.0
11344,31.0
11345,29.0
11346,29.0
11347,25.0
11348,25.0
11349,26.0
11350,25.0
11351,25.0
11352,27.0
11353,28.0
11354,31.0
11355,36.0
11356,36.0
11357,35.0
11358,32.0
11359,32.0
11360,25.0
11361,24.0
11362,28.0
11363,29.0
11364,28.0
11365,26.0
11366,23.0
11367,25.0
11368,27.0
11369,27.0
11370,25.0
11371,28.0
11372,30.0
11373,36.0
11374,33.0
11375,29.0
11376,32.0
11377,32.0
11378,31.0
11379,30.0
11380,31.0
11381,31.0
11382,29.0
11383,29.0
11384,32.0
11385,31.0
11386,29.0
11387,32.0
11388,29.0
11389,30.0
11390,32.0
11391,32.0
11392,34.0
11393,30.0
11394,30.0
11395,34.0
11396,37.0
11397,40.0
11398,40.0
11399,32.0
11400,30.0
11401,34.0
11402,32.0
11403,33.0
11404,33.0
11405,32.0
11406,30.0
11407,29.0
11408,31.0
11409,30.0
11410,31.0
11411,33.0
11412,30.0
11413,32.0
11414,37.0
11415,35.0
11416,31.0
11417,30.0
11418,26.0
11419,27.0
11420,31.0
11421,31.0
11422,34.0
11423,35.0
11424,36.0
11425,37.0
11426,37.0
11427,33.0
11428,29.0
11429,30.0
11430,34.0
11431,35.0
11432,36.0
11433,33.0
11434,31.0
11435,25.0
11436,29.0
11437,32.0
11438,31.0
11439,30.0
11440,29.0
11441,30.0
11442,28.0
11443,27.0
11444,27.0
11445,28.0
11446,29.0
11447,26.0
11448,21.0
11449,30.0
11450,28.0
11451,29.0
11452,35.0
11453,33.0
11454,31.0
11455,32.0
11456,29.0
11457,28.0
11458,23.0
11459,26.0
11460,28.0
11461,25.0
11462,24.0
11463,27.0
11464,26.0
11465,21.0
11466,25.0
11467,30.0
11468,28.0
11469,29.0
11470,29.0
11471,28.0
11472,24.0
11473,24.0
11474,23.0
11475,22.0
11476,24.0
11477,30.0
11478,33.0
11479,30.0
11480,32.0
11481,30.0
11482,29.0
11483,28.0
11484,27.0
11485,27.0
11486,25.0
11487,25.0
11488,29.0
11489,34.0
11490,30.0
11491,27.0
11492,26.0
11493,28.0
11494,29.0
11495,29.0
11496,28.0
11497,22.0
11498,23.0
11499,32.0
11500,30.0
11501,26.0
11502,27.0
11503,27.0
11504,22.0
11505,19.0
11506,25.0
11507,24.0
11508,22.0
11509,27.0
11510,27.0
11511,27.0
11512,30.0
11513,28.0
11514,28.0
11515,30.0
11516,27.0
11517,30.0
11518,31.0
11519,30.0
11520,29.0
11521,28.0
11522,28.0
11523,26.0
11524,16.0
11525,21.0
11526,24.0
11527,25.0
11528,21.0
11529,26.0
11530,30.0
11531,31.0
11532,28.0
11533,28.0
11534,29.0
11535,27.0
11536,27.0
11537,29.0
11538,25.0
11539,24.0
11540,23.0
11541,26.0
11542,30.0
11543,29.0
11544,29.0
11545,33.0
11546,30.0
11547,29.0
11548,25.0
11549,26.0
11550,29.0
11551,28.0
11552,27.0
11553,28.0
11554,29.0
11555,29.0
11556,30.0
11557,29.0
11558,28.0
11559,28.0
11560,27.0
11561,24.0
11562,24.0
11563,27.0
11564,28.0
11565,29.0
11566,25.0
11567,28.0
11568,30.0
11569,30.0
11570,27.0
11571,28.0
11572,29.0
11573,26.0
11574,27.0
11575,29.0
11576,29.0
11577,30.0
11578,25.0
11579,21.0
11580,22.0
11581,26.0
11582,26.0
11583,29.0
11584,28.0
11585,29.0
11586,28.0
11587,28.0
11588,27.0
11589,26.0
11590,30.0
11591,28.0
11592,26.0
11593,27.0
11594,28.0
11595,27.0
11596,27.0
11597,27.0
11598,29.0
11599,29.0
11600,30.0
11601,30.0
11602,26.0
11603,28.0
11604,28.0
11605,28.0
11606,26.0
11607,31.0
11608,31.0
11609,30.0
11610,30.0
11611,29.0
11612,32.0
11613,32.0
11614,26.0
11615,29.0
11616,28.0
11617,31.0
11618,28.0
11619,28.0
11620,28.0
11621,28.0
11622,29.0
11623,30.0
11624,30.0
11625,32.0
11626,29.0
11627,28.0
11628,27.0
11629,23.0
11630,22.0
11631,30.0
11632,29.0
11633,24.0
11634,21.0
11635,18.0
11636,28.0
11637,29.0
11638,25.0
11639,27.0
11640,28.0
11641,26.0
11642,27.0
11643,26.0
11644,27.0
11645,30.0
11646,28.0
11647,25.0
11648,25.0
11649,26.0
11650,30.0
11651,28.0
11652,28.0
11653,28.0
11654,27.0
11655,23.0
11656,26.0
11657,26.0
11658,29.0
11659,27.0
11660,26.0
11661,22.0
11662,25.0
11663,25.0
11664,22.0
11665,23.0
11666,26.0
11667,28.0
11668,27.0
11669,28.0
11670,26.0
11671,24.0
11672,28.0
11673,25.0
11674,25.0
11675,23.0
11676,26.0
11677,27.0
11678,28.0
11679,27.0
11680,27.0
11681,27.0
11682,32.0
11683,29.0
11684,29.0
11685,27.0
11686,25.0
11687,22.0
11688,19.0
11689,15.0
11690,17.0
11691,23.0
11692,27.0
11693,25.0
11694,24.0
11695,25.0
11696,28.0
11697,33.0
11698,35.0
11699,32.0
11700,28.0
11701,29.0
11702,30.0
11703,25.0
11704,29.0
11705,32.0
11706,26.0
11707,29.0
11708,31.0
11709,29.0
11710,30.0
11711,27.0
11712,27.0
11713,23.0
11714,22.0
11715,24.0
11716,26.0
11717,32.0
11718,30.0
11719,27.0
11720,26.0
11721,26.0
11722,26.0
11723,24.0
11724,23.0
11725,18.0
11726,18.0
11727,17.0
11728,13.0
11729,11.0
11730,17.0
11731,21.0
11732,24.0
11733,22.0
11734,21.0
11735,23.0
11736,24.0
11737,22.0
11738,24.0
11739,19.0
11740,20.0
11741,21.0
11742,19.0
11743,19.0
11744,20.0
11745,27.0
11746,28.0
11747,25.0
11748,26.0
11749,25.0
11750,26.0
11751,27.0
11752,26.0
11753,26.0
11754,28.0
11755,29.0
11756,24.0
11757,25.0
11758,25.0
11759,24.0
11760,20.0
11761,17.0
11762,21.0
11763,22.0
11764,22.0
11765,31.0
11766,36.0
11767,29.0
11768,26.0
11769,27.0
11770,27.0
11771,28.0
11772,22.0
11773,21.0
11774,26.0
11775,30.0
11776,29.0
11777,34.0
11778,31.0
11779,34.0
11780,28.0
11781,25.0
11782,28.0
11783,31.0
11784,32.0
11785,32.0
11786,34.0
11787,31.0
11788,31.0
11789,28.0
11790,26.0
11791,26.0
11792,24.0
11793,26.0
11794,26.0
11795,24.0
11796,24.0
11797,25.0
11798,21.0
11799,22.0
11800,25.0
11801,24.0
11802,27.0
11803,30.0
11804,26.0
11805,30.0
11806,32.0
11807,34.0
11808,30.0
11809,26.0
11810,21.0
11811,19.0
11812,25.0
11813,27.0
11814,24.0
11815,28.0
11816,29.0
11817,29.0
11818,27.0
11819,28.0
11820,28.0
11821,30.0
11822,30.0
11823,32.0
11824,26.0
11825,25.0
11826,24.0
11827,24.0
11828,31.0
11829,31.0
11830,34.0
11831,35.0
11832,31.0
11833,25.0
11834,23.0
11835,28.0
11836,28.0
11837,30.0
11838,29.0
11839,29.0
11840,31.0
11841,30.0
11842,27.0
11843,34.0
11844,37.0
11845,35.0
11846,34.0
11847,34.0
11848,31.0
11849,30.0
11850,29.0
11851,31.0
11852,30.0
11853,26.0
11854,23.0
11855,25.0
11856,24.0
11857,22.0
11858,30.0
11859,27.0
11860,32.0
11861,32.0
11862,35.0
11863,34.0
11864,34.0
11865,36.0
11866,35.0
11867,34.0
11868,32.0
11869,27.0
11870,29.0
11871,31.0
11872,26.0
11873,30.0
11874,34.0
11875,35.0
11876,36.0
11877,31.0
11878,31.0
11879,33.0
11880,35.0
11881,32.0
11882,32.0
11883,35.0
11884,36.0
11885,35.0
11886,35.0
11887,34.0
11888,34.0
11889,32.0
11890,32.0
11891,32.0
11892,28.0
11893,30.0
11894,32.0
11895,34.0
11896,34.0
11897,32.0
11898,31.0
11899,31.0
11900,36.0
11901,36.0
11902,38.0
11903,35.0
11904,28.0
11905,30.0
11906,30.0
11907,32.0
11908,34.0
11909,33.0
11910,33.0
11911,34.0
11912,29.0
11913,25.0
11914,22.0
11915,29.0
11916,30.0
11917,27.0
