,Amplitude
0,7.0
1,151.0
2,150.0
3,149.0
4,150.0
5,151.0
6,150.0
7,150.0
8,151.0
9,147.0
10,147.0
11,148.0
12,148.0
13,149.0
14,149.0
15,148.0
16,149.0
17,149.0
18,150.0
19,150.0
20,149.0
21,150.0
22,0.0
23,150.0
24,149.0
25,150.0
26,152.0
27,153.0
28,154.0
29,150.0
30,153.0
31,154.0
32,152.0
33,151.0
34,151.0
35,151.0
36,152.0
37,151.0
38,150.0
39,150.0
40,149.0
41,149.0
42,148.0
43,149.0
44,149.0
45,147.0
46,149.0
47,150.0
48,151.0
49,153.0
50,150.0
51,150.0
52,150.0
53,151.0
54,150.0
55,151.0
56,152.0
57,154.0
58,151.0
59,149.0
60,153.0
61,148.0
62,149.0
63,149.0
64,150.0
65,148.0
66,148.0
67,149.0
68,151.0
69,150.0
70,149.0
71,146.0
72,148.0
73,148.0
74,148.0
75,150.0
76,150.0
77,148.0
78,147.0
79,146.0
80,148.0
81,149.0
82,150.0
83,150.0
84,149.0
85,149.0
86,151.0
87,150.0
88,150.0
89,149.0
90,148.0
91,148.0
92,147.0
93,149.0
94,149.0
95,147.0
96,149.0
97,150.0
98,150.0
99,148.0
100,152.0
101,154.0
102,152.0
103,148.0
104,151.0
105,152.0
106,150.0
107,150.0
108,149.0
109,150.0
110,151.0
111,149.0
112,149.0
113,150.0
114,149.0
115,146.0
116,146.0
117,147.0
118,149.0
119,151.0
120,152.0
121,151.0
122,150.0
123,150.0
124,150.0
125,151.0
126,151.0
127,148.0
128,148.0
129,147.0
130,148.0
131,149.0
132,150.0
133,150.0
134,152.0
135,152.0
136,151.0
137,151.0
138,149.0
139,149.0
140,148.0
141,149.0
142,148.0
143,147.0
144,146.0
145,149.0
146,150.0
147,153.0
148,149.0
149,149.0
150,153.0
151,153.0
152,152.0
153,152.0
154,152.0
155,153.0
156,153.0
157,152.0
158,151.0
159,149.0
160,150.0
161,148.0
162,147.0
163,148.0
164,148.0
165,149.0
166,151.0
167,151.0
168,149.0
169,147.0
170,149.0
171,149.0
172,146.0
173,148.0
174,147.0
175,148.0
176,148.0
177,149.0
178,151.0
179,150.0
180,151.0
181,148.0
182,149.0
183,150.0
184,150.0
185,150.0
186,148.0
187,149.0
188,148.0
189,153.0
190,153.0
191,149.0
192,148.0
193,148.0
194,151.0
195,150.0
196,149.0
197,151.0
198,152.0
199,153.0
200,155.0
201,147.0
202,148.0
203,150.0
204,151.0
205,152.0
206,149.0
207,148.0
208,148.0
209,149.0
210,150.0
211,151.0
212,151.0
213,149.0
214,149.0
215,149.0
216,151.0
217,154.0
218,148.0
219,147.0
220,147.0
221,148.0
222,145.0
223,146.0
224,148.0
225,148.0
226,146.0
227,149.0
228,150.0
229,153.0
230,149.0
231,149.0
232,150.0
233,148.0
234,149.0
235,151.0
236,150.0
237,150.0
238,153.0
239,152.0
240,152.0
241,149.0
242,147.0
243,150.0
244,151.0
245,151.0
246,151.0
247,149.0
248,151.0
249,151.0
250,153.0
251,149.0
252,147.0
253,148.0
254,148.0
255,150.0
256,147.0
257,147.0
258,148.0
259,145.0
260,147.0
261,149.0
262,148.0
263,148.0
264,149.0
265,153.0
266,153.0
267,150.0
268,152.0
269,150.0
270,153.0
271,150.0
272,148.0
273,148.0
274,149.0
275,148.0
276,150.0
277,151.0
278,150.0
279,150.0
280,149.0
281,149.0
282,146.0
283,148.0
284,149.0
285,148.0
286,147.0
287,146.0
288,147.0
289,146.0
290,149.0
291,148.0
292,150.0
293,151.0
294,149.0
295,153.0
296,154.0
297,150.0
298,150.0
299,149.0
300,150.0
301,152.0
302,151.0
303,149.0
304,148.0
305,148.0
306,149.0
307,149.0
308,148.0
309,149.0
310,147.0
311,148.0
312,149.0
313,150.0
314,151.0
315,151.0
316,152.0
317,151.0
318,151.0
319,149.0
320,149.0
321,149.0
322,149.0
323,146.0
324,144.0
325,146.0
326,151.0
327,152.0
328,152.0
329,152.0
330,150.0
331,148.0
332,150.0
333,148.0
334,149.0
335,147.0
336,149.0
337,150.0
338,151.0
339,149.0
340,151.0
341,154.0
342,152.0
343,150.0
344,151.0
345,152.0
346,151.0
347,151.0
348,150.0
349,151.0
350,149.0
351,146.0
352,147.0
353,149.0
354,150.0
355,150.0
356,151.0
357,151.0
358,151.0
359,147.0
360,147.0
361,149.0
362,149.0
363,146.0
364,149.0
365,148.0
366,148.0
367,149.0
368,148.0
369,153.0
370,153.0
371,151.0
372,150.0
373,151.0
374,151.0
375,152.0
376,150.0
377,150.0
378,149.0
379,150.0
380,145.0
381,143.0
382,145.0
383,147.0
384,144.0
385,147.0
386,151.0
387,153.0
388,156.0
389,155.0
390,152.0
391,152.0
392,147.0
393,145.0
394,147.0
395,147.0
396,152.0
397,150.0
398,149.0
399,148.0
400,151.0
401,149.0
402,150.0
403,151.0
404,151.0
405,150.0
406,151.0
407,150.0
408,148.0
409,149.0
410,150.0
411,151.0
412,152.0
413,152.0
414,153.0
415,150.0
416,149.0
417,149.0
418,149.0
419,150.0
420,150.0
421,146.0
422,147.0
423,150.0
424,149.0
425,148.0
426,149.0
427,150.0
428,147.0
429,150.0
430,153.0
431,152.0
432,153.0
433,151.0
434,151.0
435,151.0
436,149.0
437,149.0
438,150.0
439,149.0
440,148.0
441,148.0
442,150.0
443,152.0
444,150.0
445,148.0
446,147.0
447,145.0
448,146.0
449,147.0
450,147.0
451,152.0
452,153.0
453,152.0
454,151.0
455,154.0
456,154.0
457,151.0
458,154.0
459,149.0
460,151.0
461,152.0
462,149.0
463,145.0
464,147.0
465,149.0
466,149.0
467,149.0
468,146.0
469,151.0
470,149.0
471,148.0
472,150.0
473,150.0
474,148.0
475,147.0
476,146.0
477,148.0
478,148.0
479,150.0
480,153.0
481,154.0
482,153.0
483,152.0
484,151.0
485,153.0
486,152.0
487,152.0
488,151.0
489,151.0
490,151.0
491,148.0
492,146.0
493,148.0
494,151.0
495,153.0
496,153.0
497,152.0
498,151.0
499,150.0
500,149.0
501,151.0
502,152.0
503,151.0
504,150.0
505,153.0
506,152.0
507,150.0
508,149.0
509,149.0
510,149.0
511,149.0
512,147.0
513,146.0
514,145.0
515,145.0
516,146.0
517,151.0
518,148.0
519,152.0
520,152.0
521,154.0
522,153.0
523,153.0
524,152.0
525,153.0
526,151.0
527,152.0
528,151.0
529,151.0
530,149.0
531,149.0
532,148.0
533,148.0
534,148.0
535,149.0
536,151.0
537,151.0
538,150.0
539,153.0
540,155.0
541,153.0
542,155.0
543,151.0
544,150.0
545,151.0
546,151.0
547,149.0
548,149.0
549,152.0
550,146.0
551,150.0
552,150.0
553,150.0
554,146.0
555,150.0
556,151.0
557,151.0
558,151.0
559,151.0
560,151.0
561,150.0
562,149.0
563,147.0
564,148.0
565,150.0
566,148.0
567,145.0
568,147.0
569,146.0
570,152.0
571,152.0
572,152.0
573,153.0
574,153.0
575,152.0
576,151.0
577,149.0
578,149.0
579,148.0
580,150.0
581,152.0
582,151.0
583,150.0
584,149.0
585,149.0
586,150.0
587,149.0
588,147.0
589,150.0
590,153.0
591,156.0
592,153.0
593,151.0
594,151.0
595,152.0
596,152.0
597,151.0
598,151.0
599,151.0
600,152.0
601,150.0
602,149.0
603,152.0
604,151.0
605,152.0
606,152.0
607,153.0
608,152.0
609,151.0
610,153.0
611,153.0
612,152.0
613,149.0
614,149.0
615,151.0
616,150.0
617,149.0
618,147.0
619,148.0
620,150.0
621,151.0
622,152.0
623,151.0
624,152.0
625,155.0
626,155.0
627,153.0
628,153.0
629,151.0
630,151.0
631,149.0
632,148.0
633,148.0
634,149.0
635,153.0
636,156.0
637,156.0
638,151.0
639,151.0
640,154.0
641,158.0
642,153.0
643,150.0
644,150.0
645,150.0
646,156.0
647,158.0
648,156.0
649,155.0
650,155.0
651,155.0
652,154.0
653,152.0
654,153.0
655,153.0
656,153.0
657,154.0
658,151.0
659,152.0
660,152.0
661,149.0
662,147.0
663,151.0
664,150.0
665,151.0
666,150.0
667,152.0
668,153.0
669,151.0
670,150.0
671,149.0
672,151.0
673,150.0
674,148.0
675,148.0
676,148.0
677,147.0
678,150.0
679,149.0
680,151.0
681,151.0
682,151.0
683,150.0
684,147.0
685,148.0
686,148.0
687,150.0
688,149.0
689,149.0
690,153.0
691,153.0
692,151.0
693,152.0
694,153.0
695,149.0
696,149.0
697,149.0
698,148.0
699,147.0
700,149.0
701,149.0
702,147.0
703,149.0
704,153.0
705,149.0
706,150.0
707,152.0
708,150.0
709,149.0
710,149.0
711,150.0
712,152.0
713,151.0
714,150.0
715,149.0
716,151.0
717,153.0
718,149.0
719,150.0
720,151.0
721,149.0
722,147.0
723,145.0
724,144.0
725,147.0
726,148.0
727,148.0
728,146.0
729,148.0
730,147.0
731,151.0
732,153.0
733,154.0
734,158.0
735,160.0
736,160.0
737,164.0
738,165.0
739,166.0
740,171.0
741,174.0
742,170.0
743,171.0
744,173.0
745,176.0
746,178.0
747,179.0
748,181.0
749,179.0
750,178.0
751,178.0
752,176.0
753,176.0
754,173.0
755,167.0
756,162.0
757,158.0
758,151.0
759,145.0
760,140.0
761,141.0
762,143.0
763,144.0
764,145.0
765,144.0
766,141.0
767,138.0
768,141.0
769,140.0
770,142.0
771,146.0
772,151.0
773,152.0
774,148.0
775,148.0
776,145.0
777,147.0
778,149.0
779,151.0
780,150.0
781,150.0
782,151.0
783,150.0
784,151.0
785,150.0
786,150.0
787,150.0
788,151.0
789,151.0
790,152.0
791,149.0
792,149.0
793,152.0
794,152.0
795,151.0
796,151.0
797,154.0
798,150.0
799,153.0
800,155.0
801,152.0
802,149.0
803,150.0
804,149.0
805,148.0
806,150.0
807,154.0
808,153.0
809,152.0
810,151.0
811,152.0
812,152.0
813,154.0
814,152.0
815,151.0
816,151.0
817,152.0
818,152.0
819,153.0
820,150.0
821,151.0
822,152.0
823,154.0
824,154.0
825,154.0
826,151.0
827,148.0
828,149.0
829,151.0
830,152.0
831,152.0
832,153.0
833,152.0
834,154.0
835,157.0
836,154.0
837,152.0
838,154.0
839,158.0
840,156.0
841,152.0
842,153.0
843,153.0
844,154.0
845,154.0
846,152.0
847,152.0
848,152.0
849,153.0
850,152.0
851,153.0
852,153.0
853,154.0
854,151.0
855,150.0
856,154.0
857,159.0
858,152.0
859,152.0
860,154.0
861,153.0
862,153.0
863,154.0
864,155.0
865,155.0
866,152.0
867,152.0
868,153.0
869,152.0
870,151.0
871,150.0
872,148.0
873,150.0
874,151.0
875,155.0
876,155.0
877,156.0
878,155.0
879,151.0
880,152.0
881,154.0
882,156.0
883,156.0
884,156.0
885,157.0
886,159.0
887,159.0
888,157.0
889,158.0
890,158.0
891,155.0
892,153.0
893,153.0
894,151.0
895,152.0
896,152.0
897,151.0
898,152.0
899,154.0
900,156.0
901,158.0
902,160.0
903,160.0
904,160.0
905,159.0
906,158.0
907,163.0
908,158.0
909,155.0
910,154.0
911,154.0
912,157.0
913,161.0
914,159.0
915,158.0
916,157.0
917,160.0
918,159.0
919,159.0
920,161.0
921,161.0
922,160.0
923,157.0
924,156.0
925,159.0
926,161.0
927,159.0
928,158.0
929,163.0
930,163.0
931,161.0
932,161.0
933,159.0
934,159.0
935,159.0
936,160.0
937,164.0
938,161.0
939,164.0
940,167.0
941,164.0
942,164.0
943,162.0
944,161.0
945,165.0
946,165.0
947,168.0
948,166.0
949,166.0
950,164.0
951,163.0
952,162.0
953,162.0
954,163.0
955,163.0
956,163.0
957,163.0
958,165.0
959,167.0
960,171.0
961,173.0
962,171.0
963,170.0
964,172.0
965,172.0
966,170.0
967,169.0
968,171.0
969,170.0
970,170.0
971,164.0
972,166.0
973,165.0
974,165.0
975,165.0
976,164.0
977,167.0
978,170.0
979,169.0
980,170.0
981,170.0
982,172.0
983,170.0
984,166.0
985,167.0
986,167.0
987,168.0
988,167.0
989,167.0
990,166.0
991,165.0
992,164.0
993,166.0
994,170.0
995,165.0
996,162.0
997,160.0
998,160.0
999,161.0
1000,160.0
1001,158.0
1002,158.0
1003,158.0
1004,159.0
1005,157.0
1006,158.0
1007,157.0
1008,159.0
1009,157.0
1010,157.0
1011,153.0
1012,149.0
1013,154.0
1014,156.0
1015,155.0
1016,154.0
1017,155.0
1018,153.0
1019,155.0
1020,155.0
1021,153.0
1022,150.0
1023,153.0
1024,151.0
1025,152.0
1026,152.0
1027,152.0
1028,153.0
1029,153.0
1030,151.0
1031,150.0
1032,148.0
1033,150.0
1034,149.0
1035,146.0
1036,144.0
1037,146.0
1038,145.0
1039,147.0
1040,148.0
1041,154.0
1042,154.0
1043,155.0
1044,159.0
1045,157.0
1046,154.0
1047,152.0
1048,154.0
1049,153.0
1050,153.0
1051,150.0
1052,151.0
1053,150.0
1054,150.0
1055,150.0
1056,151.0
1057,151.0
1058,149.0
1059,148.0
1060,151.0
1061,150.0
1062,150.0
1063,152.0
1064,153.0
1065,150.0
1066,152.0
1067,152.0
1068,153.0
1069,153.0
1070,151.0
1071,153.0
1072,152.0
1073,151.0
1074,149.0
1075,147.0
1076,149.0
1077,148.0
1078,150.0
1079,152.0
1080,149.0
1081,148.0
1082,146.0
1083,145.0
1084,146.0
1085,147.0
1086,148.0
1087,152.0
1088,150.0
1089,151.0
1090,152.0
1091,152.0
1092,150.0
1093,150.0
1094,150.0
1095,149.0
1096,150.0
1097,150.0
1098,148.0
1099,148.0
1100,148.0
1101,148.0
1102,147.0
1103,147.0
1104,151.0
1105,153.0
1106,153.0
1107,151.0
1108,151.0
1109,150.0
1110,148.0
1111,149.0
1112,148.0
1113,148.0
1114,151.0
1115,153.0
1116,152.0
1117,154.0
1118,153.0
1119,152.0
1120,151.0
1121,150.0
1122,150.0
1123,149.0
1124,153.0
1125,149.0
1126,146.0
1127,148.0
1128,147.0
1129,147.0
1130,150.0
1131,151.0
1132,154.0
1133,151.0
1134,150.0
1135,149.0
1136,149.0
1137,149.0
1138,152.0
1139,151.0
1140,144.0
1141,146.0
1142,146.0
1143,152.0
1144,152.0
1145,149.0
1146,147.0
1147,147.0
1148,148.0
1149,149.0
1150,151.0
1151,150.0
1152,148.0
1153,146.0
1154,146.0
1155,146.0
1156,144.0
1157,145.0
1158,148.0
1159,151.0
1160,155.0
1161,154.0
1162,155.0
1163,150.0
1164,154.0
1165,153.0
1166,150.0
1167,151.0
1168,148.0
1169,149.0
1170,152.0
1171,150.0
1172,145.0
1173,148.0
1174,150.0
1175,149.0
1176,148.0
1177,148.0
1178,148.0
1179,148.0
1180,148.0
1181,147.0
1182,148.0
1183,148.0
1184,149.0
1185,150.0
1186,153.0
1187,155.0
1188,151.0
1189,150.0
1190,149.0
1191,151.0
1192,148.0
1193,147.0
1194,148.0
1195,148.0
1196,148.0
1197,148.0
1198,147.0
1199,149.0
1200,152.0
1201,148.0
1202,147.0
1203,149.0
1204,149.0
1205,146.0
1206,148.0
1207,150.0
1208,150.0
1209,153.0
1210,151.0
1211,150.0
1212,151.0
1213,152.0
1214,151.0
1215,149.0
1216,149.0
1217,150.0
1218,147.0
1219,146.0
1220,150.0
1221,150.0
1222,147.0
1223,147.0
1224,149.0
1225,150.0
1226,151.0
1227,152.0
1228,151.0
1229,149.0
1230,147.0
1231,144.0
1232,143.0
1233,145.0
1234,147.0
1235,146.0
1236,146.0
1237,149.0
1238,150.0
1239,148.0
1240,150.0
1241,151.0
1242,151.0
1243,151.0
1244,152.0
1245,149.0
1246,151.0
1247,147.0
1248,146.0
1249,148.0
1250,147.0
1251,147.0
1252,146.0
1253,145.0
1254,145.0
1255,152.0
1256,150.0
1257,149.0
1258,150.0
1259,150.0
1260,147.0
1261,150.0
1262,150.0
1263,150.0
1264,151.0
1265,151.0
1266,150.0
1267,150.0
1268,149.0
1269,150.0
1270,150.0
1271,145.0
1272,148.0
1273,149.0
1274,150.0
1275,151.0
1276,152.0
1277,149.0
1278,146.0
1279,147.0
1280,147.0
1281,146.0
1282,146.0
1283,148.0
1284,150.0
1285,151.0
1286,150.0
1287,150.0
1288,149.0
1289,149.0
1290,151.0
1291,154.0
1292,145.0
1293,145.0
1294,146.0
1295,150.0
1296,147.0
1297,148.0
1298,151.0
1299,152.0
1300,146.0
1301,145.0
1302,143.0
1303,145.0
1304,147.0
1305,148.0
1306,146.0
1307,148.0
1308,148.0
1309,148.0
1310,147.0
1311,148.0
1312,152.0
1313,153.0
1314,151.0
1315,150.0
1316,149.0
1317,150.0
1318,150.0
1319,151.0
1320,150.0
1321,149.0
1322,147.0
1323,145.0
1324,148.0
1325,148.0
1326,149.0
1327,146.0
1328,147.0
1329,149.0
1330,150.0
1331,152.0
1332,148.0
1333,148.0
1334,149.0
1335,149.0
1336,146.0
1337,147.0
1338,149.0
1339,147.0
1340,146.0
1341,149.0
1342,149.0
1343,151.0
1344,151.0
1345,150.0
1346,148.0
1347,149.0
1348,146.0
1349,145.0
1350,148.0
1351,148.0
1352,143.0
1353,145.0
1354,145.0
1355,146.0
1356,148.0
1357,150.0
1358,148.0
1359,149.0
1360,150.0
1361,151.0
1362,149.0
1363,149.0
1364,149.0
1365,149.0
1366,147.0
1367,146.0
1368,144.0
1369,147.0
1370,149.0
1371,149.0
1372,149.0
1373,150.0
1374,149.0
1375,148.0
1376,148.0
1377,152.0
1378,151.0
1379,149.0
1380,149.0
1381,150.0
1382,151.0
1383,150.0
1384,151.0
1385,147.0
1386,147.0
1387,149.0
1388,147.0
1389,146.0
1390,147.0
1391,148.0
1392,147.0
1393,146.0
1394,145.0
1395,147.0
1396,148.0
1397,149.0
1398,150.0
1399,150.0
1400,150.0
1401,150.0
1402,151.0
1403,148.0
1404,143.0
1405,144.0
1406,146.0
1407,148.0
1408,146.0
1409,148.0
1410,150.0
1411,149.0
1412,145.0
1413,150.0
1414,148.0
1415,147.0
1416,149.0
1417,149.0
1418,146.0
1419,144.0
1420,146.0
1421,147.0
1422,147.0
1423,146.0
1424,147.0
1425,152.0
1426,150.0
1427,147.0
1428,147.0
1429,152.0
1430,151.0
1431,152.0
1432,151.0
1433,150.0
1434,146.0
1435,148.0
1436,150.0
1437,148.0
1438,149.0
1439,149.0
1440,148.0
1441,152.0
1442,149.0
1443,148.0
1444,147.0
1445,147.0
1446,146.0
1447,148.0
1448,147.0
1449,147.0
1450,145.0
1451,145.0
1452,147.0
1453,147.0
1454,149.0
1455,147.0
1456,148.0
1457,151.0
1458,149.0
1459,147.0
1460,147.0
1461,148.0
1462,148.0
1463,148.0
1464,148.0
1465,148.0
1466,143.0
1467,146.0
1468,146.0
1469,145.0
1470,147.0
1471,146.0
1472,150.0
1473,151.0
1474,149.0
1475,145.0
1476,147.0
1477,150.0
1478,150.0
1479,151.0
1480,152.0
1481,150.0
1482,148.0
1483,147.0
1484,148.0
1485,149.0
1486,149.0
1487,147.0
1488,145.0
1489,144.0
1490,147.0
1491,149.0
1492,147.0
1493,145.0
1494,149.0
1495,153.0
1496,149.0
1497,150.0
1498,152.0
1499,152.0
1500,150.0
1501,150.0
1502,149.0
1503,146.0
1504,145.0
1505,145.0
1506,146.0
1507,147.0
1508,146.0
1509,147.0
1510,150.0
1511,150.0
1512,147.0
1513,148.0
1514,148.0
1515,148.0
1516,153.0
1517,151.0
1518,147.0
1519,148.0
1520,148.0
1521,148.0
1522,149.0
1523,147.0
1524,146.0
1525,147.0
1526,146.0
1527,145.0
1528,146.0
1529,149.0
1530,148.0
1531,146.0
1532,146.0
1533,146.0
1534,149.0
1535,149.0
1536,149.0
1537,149.0
1538,149.0
1539,150.0
1540,151.0
1541,149.0
1542,150.0
1543,147.0
1544,144.0
1545,146.0
1546,144.0
1547,143.0
1548,146.0
1549,147.0
1550,149.0
1551,150.0
1552,147.0
1553,145.0
1554,146.0
1555,150.0
1556,150.0
1557,146.0
1558,147.0
1559,149.0
1560,149.0
1561,149.0
1562,150.0
1563,148.0
1564,147.0
1565,147.0
1566,146.0
1567,146.0
1568,145.0
1569,145.0
1570,148.0
1571,151.0
1572,154.0
1573,151.0
1574,149.0
1575,149.0
1576,149.0
1577,150.0
1578,151.0
1579,151.0
1580,151.0
1581,148.0
1582,148.0
1583,149.0
1584,148.0
1585,149.0
1586,149.0
1587,147.0
1588,147.0
1589,147.0
1590,150.0
1591,148.0
1592,148.0
1593,149.0
1594,149.0
1595,151.0
1596,152.0
1597,153.0
1598,151.0
1599,150.0
1600,152.0
1601,151.0
1602,148.0
1603,149.0
1604,150.0
1605,150.0
1606,147.0
1607,148.0
1608,147.0
1609,147.0
1610,146.0
1611,150.0
1612,154.0
1613,151.0
1614,150.0
1615,152.0
1616,152.0
1617,150.0
1618,152.0
1619,152.0
1620,151.0
1621,150.0
1622,148.0
1623,148.0
1624,148.0
1625,147.0
1626,144.0
1627,147.0
1628,146.0
1629,144.0
1630,145.0
1631,149.0
1632,149.0
1633,148.0
1634,147.0
1635,150.0
1636,152.0
1637,147.0
1638,150.0
1639,150.0
1640,148.0
1641,147.0
1642,148.0
1643,145.0
1644,146.0
1645,150.0
1646,148.0
1647,148.0
1648,147.0
1649,144.0
1650,145.0
1651,146.0
1652,145.0
1653,146.0
1654,146.0
1655,149.0
1656,151.0
1657,151.0
1658,147.0
1659,147.0
1660,145.0
1661,146.0
1662,145.0
1663,146.0
1664,148.0
1665,147.0
1666,143.0
1667,145.0
1668,148.0
1669,149.0
1670,147.0
1671,147.0
1672,147.0
1673,147.0
1674,146.0
1675,146.0
1676,147.0
1677,148.0
1678,148.0
1679,146.0
1680,144.0
1681,145.0
1682,147.0
1683,141.0
1684,141.0
1685,142.0
1686,142.0
1687,145.0
1688,144.0
1689,146.0
1690,149.0
1691,150.0
1692,149.0
1693,151.0
1694,154.0
1695,156.0
1696,159.0
1697,161.0
1698,167.0
1699,169.0
1700,171.0
1701,171.0
1702,172.0
1703,174.0
1704,174.0
1705,176.0
1706,175.0
1707,175.0
1708,177.0
1709,177.0
1710,176.0
1711,178.0
1712,176.0
1713,174.0
1714,167.0
1715,164.0
1716,157.0
1717,150.0
1718,146.0
1719,141.0
1720,138.0
1721,138.0
1722,138.0
1723,137.0
1724,137.0
1725,140.0
1726,140.0
1727,142.0
1728,144.0
1729,142.0
1730,142.0
1731,142.0
1732,141.0
1733,142.0
1734,142.0
1735,140.0
1736,142.0
1737,144.0
1738,145.0
1739,145.0
1740,145.0
1741,150.0
1742,149.0
1743,150.0
1744,148.0
1745,148.0
1746,151.0
1747,150.0
1748,148.0
1749,151.0
1750,146.0
1751,145.0
1752,150.0
1753,151.0
1754,152.0
1755,150.0
1756,150.0
1757,149.0
1758,147.0
1759,147.0
1760,147.0
1761,148.0
1762,147.0
1763,148.0
1764,149.0
1765,149.0
1766,147.0
1767,150.0
1768,150.0
1769,150.0
1770,151.0
1771,153.0
1772,154.0
1773,151.0
1774,152.0
1775,151.0
1776,149.0
1777,149.0
1778,149.0
1779,148.0
1780,148.0
1781,149.0
1782,149.0
1783,148.0
1784,150.0
1785,150.0
1786,148.0
1787,147.0
1788,147.0
1789,151.0
1790,151.0
1791,148.0
1792,147.0
1793,148.0
1794,147.0
1795,144.0
1796,146.0
1797,144.0
1798,145.0
1799,149.0
1800,151.0
1801,154.0
1802,153.0
1803,155.0
1804,159.0
1805,152.0
1806,151.0
1807,151.0
1808,150.0
1809,148.0
1810,148.0
1811,149.0
1812,150.0
1813,149.0
1814,147.0
1815,151.0
1816,153.0
1817,148.0
1818,148.0
1819,148.0
1820,148.0
1821,151.0
1822,152.0
1823,153.0
1824,154.0
1825,155.0
1826,152.0
1827,151.0
1828,154.0
1829,156.0
1830,153.0
1831,153.0
1832,154.0
1833,153.0
1834,154.0
1835,152.0
1836,149.0
1837,149.0
1838,153.0
1839,156.0
1840,153.0
1841,154.0
1842,152.0
1843,154.0
1844,154.0
1845,155.0
1846,155.0
1847,154.0
1848,154.0
1849,155.0
1850,155.0
1851,154.0
1852,152.0
1853,154.0
1854,155.0
1855,153.0
1856,153.0
1857,152.0
1858,151.0
1859,152.0
1860,154.0
1861,151.0
1862,148.0
1863,149.0
1864,151.0
1865,151.0
1866,150.0
1867,153.0
1868,155.0
1869,155.0
1870,156.0
1871,155.0
1872,155.0
1873,156.0
1874,156.0
1875,156.0
1876,156.0
1877,158.0
1878,158.0
1879,160.0
1880,159.0
1881,157.0
1882,157.0
1883,157.0
1884,158.0
1885,154.0
1886,153.0
1887,154.0
1888,156.0
1889,158.0
1890,156.0
1891,156.0
1892,158.0
1893,157.0
1894,161.0
1895,163.0
1896,162.0
1897,162.0
1898,163.0
1899,165.0
1900,161.0
1901,161.0
1902,161.0
1903,163.0
1904,165.0
1905,164.0
1906,164.0
1907,164.0
1908,164.0
1909,162.0
1910,160.0
1911,163.0
1912,162.0
1913,160.0
1914,161.0
1915,161.0
1916,164.0
1917,167.0
1918,169.0
1919,171.0
1920,171.0
1921,168.0
1922,167.0
1923,168.0
1924,167.0
1925,166.0
1926,166.0
1927,166.0
1928,162.0
1929,164.0
1930,166.0
1931,167.0
1932,170.0
1933,173.0
1934,172.0
1935,166.0
1936,163.0
1937,170.0
1938,169.0
1939,170.0
1940,165.0
1941,163.0
1942,166.0
1943,167.0
1944,165.0
1945,165.0
1946,164.0
1947,164.0
1948,161.0
1949,160.0
1950,163.0
1951,163.0
1952,160.0
1953,162.0
1954,162.0
1955,163.0
1956,159.0
1957,159.0
1958,156.0
1959,160.0
1960,160.0
1961,160.0
1962,160.0
1963,159.0
1964,158.0
1965,156.0
1966,154.0
1967,153.0
1968,152.0
1969,153.0
1970,155.0
1971,155.0
1972,154.0
1973,152.0
1974,151.0
1975,151.0
1976,151.0
1977,151.0
1978,149.0
1979,147.0
1980,148.0
1981,151.0
1982,150.0
1983,150.0
1984,148.0
1985,147.0
1986,153.0
1987,152.0
1988,152.0
1989,151.0
1990,151.0
1991,151.0
1992,147.0
1993,149.0
1994,150.0
1995,148.0
1996,147.0
1997,150.0
1998,150.0
1999,149.0
2000,148.0
2001,148.0
2002,150.0
2003,149.0
2004,147.0
2005,148.0
2006,146.0
2007,149.0
2008,148.0
2009,146.0
2010,144.0
2011,148.0
2012,150.0
2013,149.0
2014,150.0
2015,150.0
2016,149.0
2017,149.0
2018,149.0
2019,148.0
2020,149.0
2021,151.0
2022,151.0
2023,146.0
2024,146.0
2025,149.0
2026,152.0
2027,145.0
2028,147.0
2029,150.0
2030,148.0
2031,150.0
2032,149.0
2033,145.0
2034,145.0
2035,146.0
2036,146.0
2037,145.0
2038,146.0
2039,148.0
2040,148.0
2041,149.0
2042,151.0
2043,152.0
2044,152.0
2045,148.0
2046,150.0
2047,150.0
2048,147.0
2049,147.0
2050,149.0
2051,149.0
2052,147.0
2053,145.0
2054,145.0
2055,145.0
2056,148.0
2057,149.0
2058,149.0
2059,148.0
2060,148.0
2061,147.0
2062,147.0
2063,151.0
2064,147.0
2065,147.0
2066,146.0
2067,147.0
2068,146.0
2069,147.0
2070,147.0
2071,147.0
2072,147.0
2073,148.0
2074,150.0
2075,150.0
2076,149.0
2077,147.0
2078,148.0
2079,147.0
2080,147.0
2081,147.0
2082,148.0
2083,149.0
2084,149.0
2085,147.0
2086,149.0
2087,149.0
2088,151.0
2089,143.0
2090,144.0
2091,146.0
2092,147.0
2093,149.0
2094,144.0
2095,141.0
2096,144.0
2097,145.0
2098,147.0
2099,147.0
2100,149.0
2101,154.0
2102,151.0
2103,150.0
2104,151.0
2105,151.0
2106,149.0
2107,147.0
2108,145.0
2109,146.0
2110,152.0
2111,149.0
2112,147.0
2113,150.0
2114,147.0
2115,147.0
2116,150.0
2117,148.0
2118,147.0
2119,148.0
2120,147.0
2121,149.0
2122,147.0
2123,144.0
2124,146.0
2125,150.0
2126,150.0
2127,148.0
2128,148.0
2129,147.0
2130,149.0
2131,146.0
2132,148.0
2133,148.0
2134,147.0
2135,149.0
2136,152.0
2137,149.0
2138,147.0
2139,147.0
2140,149.0
2141,150.0
2142,146.0
2143,147.0
2144,145.0
2145,147.0
2146,148.0
2147,147.0
2148,146.0
2149,145.0
2150,143.0
2151,141.0
2152,140.0
2153,145.0
2154,144.0
2155,148.0
2156,149.0
2157,150.0
2158,150.0
2159,148.0
2160,149.0
2161,150.0
2162,148.0
2163,148.0
2164,149.0
2165,149.0
2166,151.0
2167,148.0
2168,147.0
2169,148.0
2170,147.0
2171,147.0
2172,148.0
2173,151.0
2174,152.0
2175,147.0
2176,147.0
2177,148.0
2178,148.0
2179,147.0
2180,148.0
2181,149.0
2182,147.0
2183,146.0
2184,146.0
2185,147.0
2186,146.0
2187,146.0
2188,147.0
2189,147.0
2190,146.0
2191,147.0
2192,145.0
2193,144.0
2194,144.0
2195,144.0
2196,143.0
2197,145.0
2198,148.0
2199,150.0
2200,152.0
2201,149.0
2202,149.0
2203,146.0
2204,146.0
2205,145.0
2206,145.0
2207,147.0
2208,148.0
2209,148.0
2210,149.0
2211,149.0
2212,146.0
2213,146.0
2214,145.0
2215,146.0
2216,144.0
2217,146.0
2218,149.0
2219,145.0
2220,148.0
2221,149.0
2222,152.0
2223,149.0
2224,149.0
2225,149.0
2226,147.0
2227,148.0
2228,148.0
2229,147.0
2230,148.0
2231,147.0
2232,146.0
2233,146.0
2234,146.0
2235,146.0
2236,148.0
2237,146.0
2238,144.0
2239,148.0
2240,148.0
2241,146.0
2242,147.0
2243,147.0
2244,149.0
2245,150.0
2246,148.0
2247,149.0
2248,148.0
2249,150.0
2250,145.0
2251,147.0
2252,145.0
2253,144.0
2254,146.0
2255,148.0
2256,146.0
2257,148.0
2258,149.0
2259,146.0
2260,149.0
2261,142.0
2262,140.0
2263,144.0
2264,144.0
2265,144.0
2266,144.0
2267,147.0
2268,149.0
2269,149.0
2270,147.0
2271,145.0
2272,145.0
2273,146.0
2274,146.0
2275,145.0
2276,143.0
2277,143.0
2278,150.0
2279,150.0
2280,149.0
2281,147.0
2282,149.0
2283,149.0
2284,148.0
2285,149.0
2286,149.0
2287,150.0
2288,149.0
2289,149.0
2290,146.0
2291,146.0
2292,145.0
2293,144.0
2294,146.0
2295,148.0
2296,147.0
2297,146.0
2298,148.0
2299,147.0
2300,144.0
2301,144.0
2302,146.0
2303,145.0
2304,144.0
2305,147.0
2306,144.0
2307,149.0
2308,148.0
2309,146.0
2310,146.0
2311,149.0
2312,147.0
2313,146.0
2314,148.0
2315,150.0
2316,149.0
2317,150.0
2318,149.0
2319,146.0
2320,147.0
2321,146.0
2322,147.0
2323,148.0
2324,146.0
2325,145.0
2326,143.0
2327,141.0
2328,144.0
2329,143.0
2330,144.0
2331,151.0
2332,150.0
2333,146.0
2334,144.0
2335,147.0
2336,149.0
2337,150.0
2338,150.0
2339,148.0
2340,146.0
2341,146.0
2342,148.0
2343,146.0
2344,143.0
2345,142.0
2346,143.0
2347,145.0
2348,146.0
2349,146.0
2350,145.0
2351,144.0
2352,146.0
2353,149.0
2354,149.0
2355,148.0
2356,148.0
2357,144.0
2358,145.0
2359,146.0
2360,147.0
2361,144.0
2362,149.0
2363,152.0
2364,152.0
2365,149.0
2366,149.0
2367,147.0
2368,147.0
2369,147.0
2370,143.0
2371,144.0
2372,145.0
2373,145.0
2374,147.0
2375,147.0
2376,148.0
2377,150.0
2378,149.0
2379,147.0
2380,146.0
2381,146.0
2382,145.0
2383,144.0
2384,144.0
2385,146.0
2386,147.0
2387,144.0
2388,148.0
2389,148.0
2390,147.0
2391,144.0
2392,143.0
2393,145.0
2394,146.0
2395,146.0
2396,145.0
2397,142.0
2398,143.0
2399,147.0
2400,146.0
2401,147.0
2402,148.0
2403,150.0
2404,149.0
2405,141.0
2406,148.0
2407,152.0
2408,152.0
2409,150.0
2410,147.0
2411,148.0
2412,148.0
2413,146.0
2414,145.0
2415,147.0
2416,145.0
2417,143.0
2418,143.0
2419,147.0
2420,149.0
2421,144.0
2422,146.0
2423,145.0
2424,143.0
2425,143.0
2426,144.0
2427,146.0
2428,145.0
2429,148.0
2430,147.0
2431,148.0
2432,147.0
2433,146.0
2434,149.0
2435,148.0
2436,147.0
2437,149.0
2438,150.0
2439,148.0
2440,147.0
2441,147.0
2442,145.0
2443,145.0
2444,143.0
2445,144.0
2446,143.0
2447,143.0
2448,147.0
2449,147.0
2450,149.0
2451,150.0
2452,149.0
2453,149.0
2454,148.0
2455,146.0
2456,147.0
2457,145.0
2458,146.0
2459,146.0
2460,145.0
2461,147.0
2462,143.0
2463,142.0
2464,146.0
2465,147.0
2466,147.0
2467,149.0
2468,149.0
2469,150.0
2470,145.0
2471,145.0
2472,145.0
2473,146.0
2474,144.0
2475,145.0
2476,144.0
2477,144.0
2478,145.0
2479,144.0
2480,143.0
2481,143.0
2482,146.0
2483,149.0
2484,149.0
2485,144.0
2486,145.0
2487,148.0
2488,148.0
2489,145.0
2490,143.0
2491,143.0
2492,147.0
2493,149.0
2494,148.0
2495,147.0
2496,147.0
2497,149.0
2498,152.0
2499,150.0
2500,147.0
2501,145.0
2502,146.0
2503,150.0
2504,151.0
2505,148.0
2506,148.0
2507,148.0
2508,149.0
2509,152.0
2510,151.0
2511,148.0
2512,145.0
2513,147.0
2514,149.0
2515,150.0
2516,148.0
2517,150.0
2518,152.0
2519,152.0
2520,150.0
2521,149.0
2522,147.0
2523,149.0
2524,152.0
2525,152.0
2526,149.0
2527,145.0
2528,143.0
2529,145.0
2530,147.0
2531,147.0
2532,144.0
2533,145.0
2534,146.0
2535,146.0
2536,146.0
2537,144.0
2538,145.0
2539,148.0
2540,147.0
2541,148.0
2542,147.0
2543,146.0
2544,147.0
2545,149.0
2546,149.0
2547,148.0
2548,148.0
2549,147.0
2550,146.0
2551,144.0
2552,144.0
2553,143.0
2554,144.0
2555,147.0
2556,149.0
2557,147.0
2558,147.0
2559,149.0
2560,149.0
2561,152.0
2562,146.0
2563,148.0
2564,147.0
2565,146.0
2566,146.0
2567,146.0
2568,147.0
2569,146.0
2570,147.0
2571,146.0
2572,145.0
2573,148.0
2574,145.0
2575,148.0
2576,144.0
2577,146.0
2578,144.0
2579,144.0
2580,146.0
2581,141.0
2582,140.0
2583,146.0
2584,143.0
2585,143.0
2586,145.0
2587,147.0
2588,147.0
2589,149.0
2590,148.0
2591,145.0
2592,145.0
2593,144.0
2594,144.0
2595,143.0
2596,143.0
2597,143.0
2598,142.0
2599,142.0
2600,142.0
2601,142.0
2602,144.0
2603,145.0
2604,145.0
2605,139.0
2606,140.0
2607,142.0
2608,143.0
2609,144.0
2610,145.0
2611,146.0
2612,147.0
2613,146.0
2614,152.0
2615,152.0
2616,151.0
2617,152.0
2618,156.0
2619,160.0
2620,164.0
2621,170.0
2622,172.0
2623,170.0
2624,171.0
2625,170.0
2626,171.0
2627,171.0
2628,173.0
2629,172.0
2630,173.0
2631,175.0
2632,173.0
2633,173.0
2634,172.0
2635,170.0
2636,170.0
2637,160.0
2638,153.0
2639,148.0
2640,148.0
2641,145.0
2642,146.0
2643,144.0
2644,141.0
2645,142.0
2646,140.0
2647,141.0
2648,142.0
2649,142.0
2650,139.0
2651,139.0
2652,140.0
2653,140.0
2654,140.0
2655,144.0
2656,144.0
2657,143.0
2658,143.0
2659,145.0
2660,148.0
2661,145.0
2662,143.0
2663,146.0
2664,145.0
2665,146.0
2666,145.0
2667,146.0
2668,147.0
2669,145.0
2670,145.0
2671,147.0
2672,150.0
2673,151.0
2674,153.0
2675,151.0
2676,149.0
2677,151.0
2678,148.0
2679,145.0
2680,145.0
2681,144.0
2682,143.0
2683,143.0
2684,145.0
2685,147.0
2686,148.0
2687,148.0
2688,147.0
2689,151.0
2690,151.0
2691,149.0
2692,146.0
2693,145.0
2694,146.0
2695,148.0
2696,146.0
2697,146.0
2698,148.0
2699,148.0
2700,148.0
2701,149.0
2702,151.0
2703,151.0
2704,150.0
2705,150.0
2706,150.0
2707,150.0
2708,144.0
2709,149.0
2710,152.0
2711,149.0
2712,150.0
2713,150.0
2714,151.0
2715,150.0
2716,148.0
2717,146.0
2718,150.0
2719,153.0
2720,149.0
2721,150.0
2722,149.0
2723,150.0
2724,148.0
2725,151.0
2726,147.0
2727,146.0
2728,146.0
2729,148.0
2730,150.0
2731,150.0
2732,151.0
2733,151.0
2734,151.0
2735,147.0
2736,146.0
2737,147.0
2738,149.0
2739,151.0
2740,149.0
2741,150.0
2742,152.0
2743,150.0
2744,148.0
2745,146.0
2746,148.0
2747,151.0
2748,150.0
2749,151.0
2750,148.0
2751,153.0
2752,155.0
2753,157.0
2754,150.0
2755,149.0
2756,151.0
2757,149.0
2758,147.0
2759,145.0
2760,147.0
2761,147.0
2762,148.0
2763,148.0
2764,146.0
2765,150.0
2766,153.0
2767,154.0
2768,155.0
2769,156.0
2770,152.0
2771,153.0
2772,155.0
2773,156.0
2774,154.0
2775,153.0
2776,153.0
2777,154.0
2778,153.0
2779,152.0
2780,153.0
2781,155.0
2782,154.0
2783,153.0
2784,153.0
2785,152.0
2786,153.0
2787,153.0
2788,152.0
2789,155.0
2790,155.0
2791,154.0
2792,152.0
2793,154.0
2794,153.0
2795,151.0
2796,150.0
2797,153.0
2798,153.0
2799,153.0
2800,152.0
2801,159.0
2802,157.0
2803,160.0
2804,156.0
2805,156.0
2806,156.0
2807,157.0
2808,157.0
2809,154.0
2810,153.0
2811,154.0
2812,154.0
2813,154.0
2814,155.0
2815,155.0
2816,157.0
2817,159.0
2818,161.0
2819,161.0
2820,158.0
2821,158.0
2822,157.0
2823,158.0
2824,160.0
2825,161.0
2826,160.0
2827,159.0
2828,159.0
2829,162.0
2830,165.0
2831,164.0
2832,164.0
2833,165.0
2834,165.0
2835,162.0
2836,162.0
2837,161.0
2838,161.0
2839,166.0
2840,165.0
2841,164.0
2842,167.0
2843,165.0
2844,164.0
2845,167.0
2846,166.0
2847,166.0
2848,167.0
2849,167.0
2850,169.0
2851,164.0
2852,164.0
2853,164.0
2854,164.0
2855,164.0
2856,165.0
2857,166.0
2858,167.0
2859,166.0
2860,167.0
2861,165.0
2862,164.0
2863,163.0
2864,161.0
2865,161.0
2866,162.0
2867,163.0
2868,165.0
2869,162.0
2870,163.0
2871,164.0
2872,162.0
2873,158.0
2874,159.0
2875,160.0
2876,159.0
2877,158.0
2878,158.0
2879,159.0
2880,157.0
2881,155.0
2882,155.0
2883,157.0
2884,160.0
2885,158.0
2886,157.0
2887,154.0
2888,151.0
2889,151.0
2890,153.0
2891,154.0
2892,149.0
2893,151.0
2894,155.0
2895,154.0
2896,157.0
2897,150.0
2898,148.0
2899,149.0
2900,148.0
2901,147.0
2902,149.0
2903,150.0
2904,152.0
2905,150.0
2906,150.0
2907,150.0
2908,147.0
2909,147.0
2910,148.0
2911,152.0
2912,150.0
2913,149.0
2914,151.0
2915,151.0
2916,150.0
2917,151.0
2918,149.0
2919,148.0
2920,147.0
2921,147.0
2922,149.0
2923,147.0
2924,151.0
2925,149.0
2926,144.0
2927,146.0
2928,148.0
2929,150.0
2930,150.0
2931,148.0
2932,146.0
2933,150.0
2934,152.0
2935,151.0
2936,150.0
2937,150.0
2938,149.0
2939,147.0
2940,148.0
2941,151.0
2942,150.0
2943,145.0
2944,146.0
2945,149.0
2946,148.0
2947,149.0
2948,146.0
2949,148.0
2950,148.0
2951,145.0
2952,146.0
2953,146.0
2954,147.0
2955,145.0
2956,149.0
2957,149.0
2958,145.0
2959,149.0
2960,148.0
2961,148.0
2962,148.0
2963,148.0
2964,149.0
2965,147.0
2966,146.0
2967,149.0
2968,148.0
2969,152.0
2970,154.0
2971,149.0
2972,148.0
2973,147.0
2974,148.0
2975,148.0
2976,145.0
2977,150.0
2978,148.0
2979,147.0
2980,148.0
2981,150.0
2982,149.0
2983,148.0
2984,148.0
2985,148.0
2986,148.0
2987,148.0
2988,149.0
2989,147.0
2990,147.0
2991,147.0
2992,149.0
2993,149.0
2994,149.0
2995,148.0
2996,149.0
2997,149.0
2998,144.0
2999,144.0
3000,146.0
3001,144.0
3002,146.0
3003,145.0
3004,142.0
3005,145.0
3006,148.0
3007,149.0
3008,149.0
3009,147.0
3010,150.0
3011,151.0
3012,146.0
3013,148.0
3014,148.0
3015,150.0
3016,150.0
3017,148.0
3018,150.0
3019,151.0
3020,150.0
3021,147.0
3022,146.0
3023,145.0
3024,145.0
3025,145.0
3026,146.0
3027,147.0
3028,147.0
3029,151.0
3030,152.0
3031,151.0
3032,152.0
3033,150.0
3034,147.0
3035,144.0
3036,148.0
3037,147.0
3038,148.0
3039,150.0
3040,149.0
3041,148.0
3042,149.0
3043,148.0
3044,145.0
3045,147.0
3046,148.0
3047,146.0
3048,148.0
3049,150.0
3050,149.0
3051,149.0
3052,150.0
3053,149.0
3054,149.0
3055,149.0
3056,147.0
3057,149.0
3058,149.0
3059,151.0
3060,147.0
3061,144.0
3062,147.0
3063,148.0
3064,148.0
3065,147.0
3066,149.0
3067,151.0
3068,146.0
3069,148.0
3070,146.0
3071,148.0
3072,146.0
3073,147.0
3074,145.0
3075,147.0
3076,147.0
3077,146.0
3078,147.0
3079,146.0
3080,146.0
3081,145.0
3082,144.0
3083,146.0
3084,147.0
3085,151.0
3086,151.0
3087,151.0
3088,153.0
3089,152.0
3090,148.0
3091,148.0
3092,150.0
3093,151.0
3094,148.0
3095,148.0
3096,146.0
3097,148.0
3098,148.0
3099,150.0
3100,150.0
3101,148.0
3102,146.0
3103,147.0
3104,150.0
3105,149.0
3106,148.0
3107,148.0
3108,148.0
3109,146.0
3110,147.0
3111,152.0
3112,150.0
3113,151.0
3114,148.0
3115,148.0
3116,149.0
3117,149.0
3118,151.0
3119,151.0
3120,149.0
3121,148.0
3122,145.0
3123,147.0
3124,147.0
3125,146.0
3126,144.0
3127,144.0
3128,147.0
3129,149.0
3130,147.0
3131,151.0
3132,149.0
3133,148.0
3134,147.0
3135,143.0
3136,145.0
3137,146.0
3138,145.0
3139,146.0
3140,147.0
3141,150.0
3142,148.0
3143,148.0
3144,149.0
3145,147.0
3146,149.0
3147,148.0
3148,148.0
3149,151.0
3150,145.0
3151,147.0
3152,147.0
3153,146.0
3154,144.0
3155,147.0
3156,150.0
3157,149.0
3158,150.0
3159,151.0
3160,153.0
3161,147.0
3162,146.0
3163,146.0
3164,148.0
3165,153.0
3166,151.0
3167,152.0
3168,151.0
3169,150.0
3170,149.0
3171,149.0
3172,147.0
3173,146.0
3174,146.0
3175,149.0
3176,148.0
3177,149.0
3178,147.0
3179,145.0
3180,145.0
3181,147.0
3182,145.0
3183,145.0
3184,146.0
3185,149.0
3186,150.0
3187,151.0
3188,149.0
3189,148.0
3190,148.0
3191,149.0
3192,150.0
3193,147.0
3194,147.0
3195,148.0
3196,148.0
3197,147.0
3198,147.0
3199,146.0
3200,146.0
3201,149.0
3202,150.0
3203,149.0
3204,147.0
3205,148.0
3206,148.0
3207,146.0
3208,144.0
3209,151.0
3210,151.0
3211,150.0
3212,148.0
3213,145.0
3214,147.0
3215,149.0
3216,145.0
3217,148.0
3218,147.0
3219,147.0
3220,145.0
3221,147.0
3222,148.0
3223,147.0
3224,146.0
3225,150.0
3226,151.0
3227,151.0
3228,151.0
3229,149.0
3230,150.0
3231,149.0
3232,148.0
3233,147.0
3234,147.0
3235,149.0
3236,150.0
3237,145.0
3238,145.0
3239,148.0
3240,145.0
3241,146.0
3242,148.0
3243,149.0
3244,149.0
3245,150.0
3246,150.0
3247,151.0
3248,151.0
3249,146.0
3250,145.0
3251,147.0
3252,145.0
3253,147.0
3254,148.0
3255,148.0
3256,147.0
3257,146.0
3258,149.0
3259,150.0
3260,148.0
3261,147.0
3262,145.0
3263,145.0
3264,143.0
3265,142.0
3266,143.0
3267,149.0
3268,153.0
3269,149.0
3270,151.0
3271,151.0
3272,149.0
3273,150.0
3274,149.0
3275,149.0
3276,147.0
3277,148.0
3278,147.0
3279,147.0
3280,148.0
3281,147.0
3282,148.0
3283,143.0
3284,145.0
3285,147.0
3286,144.0
3287,144.0
3288,145.0
3289,148.0
3290,149.0
3291,148.0
3292,148.0
3293,149.0
3294,149.0
3295,150.0
3296,149.0
3297,149.0
3298,148.0
3299,147.0
3300,147.0
3301,147.0
3302,148.0
3303,145.0
3304,145.0
3305,148.0
3306,145.0
3307,143.0
3308,148.0
3309,147.0
3310,149.0
3311,144.0
3312,144.0
3313,147.0
3314,147.0
3315,147.0
3316,154.0
3317,152.0
3318,149.0
3319,150.0
3320,151.0
3321,152.0
3322,150.0
3323,148.0
3324,147.0
3325,147.0
3326,147.0
3327,146.0
3328,146.0
3329,145.0
3330,144.0
3331,145.0
3332,144.0
3333,143.0
3334,146.0
3335,148.0
3336,151.0
3337,150.0
3338,151.0
3339,152.0
3340,148.0
3341,147.0
3342,147.0
3343,146.0
3344,146.0
3345,147.0
3346,146.0
3347,150.0
3348,148.0
3349,145.0
3350,147.0
3351,147.0
3352,147.0
3353,154.0
3354,150.0
3355,148.0
3356,147.0
3357,147.0
3358,145.0
3359,144.0
3360,144.0
3361,144.0
3362,142.0
3363,146.0
3364,149.0
3365,149.0
3366,149.0
3367,150.0
3368,150.0
3369,150.0
3370,148.0
3371,149.0
3372,149.0
3373,149.0
3374,146.0
3375,147.0
3376,150.0
3377,150.0
3378,150.0
3379,148.0
3380,152.0
3381,151.0
3382,146.0
3383,148.0
3384,143.0
3385,143.0
3386,149.0
3387,147.0
3388,148.0
3389,148.0
3390,149.0
3391,150.0
3392,150.0
3393,148.0
3394,149.0
3395,148.0
3396,147.0
3397,150.0
3398,150.0
3399,149.0
3400,151.0
3401,149.0
3402,149.0
3403,148.0
3404,148.0
3405,151.0
3406,151.0
3407,146.0
3408,146.0
3409,146.0
3410,148.0
3411,148.0
3412,146.0
3413,146.0
3414,143.0
3415,142.0
3416,144.0
3417,146.0
3418,149.0
3419,150.0
3420,152.0
3421,151.0
3422,151.0
3423,153.0
3424,154.0
3425,153.0
3426,151.0
3427,150.0
3428,152.0
3429,150.0
3430,147.0
3431,147.0
3432,152.0
3433,157.0
3434,152.0
3435,150.0
3436,148.0
3437,151.0
3438,152.0
3439,146.0
3440,148.0
3441,149.0
3442,148.0
3443,151.0
3444,153.0
3445,153.0
3446,151.0
3447,147.0
3448,147.0
3449,149.0
3450,148.0
3451,150.0
3452,149.0
3453,147.0
3454,147.0
3455,146.0
3456,146.0
3457,146.0
3458,146.0
3459,145.0
3460,146.0
3461,147.0
3462,147.0
3463,148.0
3464,150.0
3465,149.0
3466,147.0
3467,147.0
3468,147.0
3469,148.0
3470,148.0
3471,145.0
3472,146.0
3473,147.0
3474,148.0
3475,149.0
3476,150.0
3477,150.0
3478,145.0
3479,144.0
3480,149.0
3481,148.0
3482,146.0
3483,146.0
3484,145.0
3485,142.0
3486,143.0
3487,142.0
3488,141.0
3489,144.0
3490,144.0
3491,144.0
3492,146.0
3493,148.0
3494,148.0
3495,148.0
3496,150.0
3497,150.0
3498,147.0
3499,146.0
3500,147.0
3501,149.0
3502,149.0
3503,148.0
3504,147.0
3505,147.0
3506,149.0
3507,144.0
3508,143.0
3509,143.0
3510,143.0
3511,142.0
3512,142.0
3513,141.0
3514,143.0
3515,143.0
3516,146.0
3517,148.0
3518,148.0
3519,150.0
3520,155.0
3521,161.0
3522,163.0
3523,161.0
3524,164.0
3525,168.0
3526,169.0
3527,170.0
3528,171.0
3529,171.0
3530,172.0
3531,173.0
3532,176.0
3533,179.0
3534,178.0
3535,177.0
3536,180.0
3537,176.0
3538,175.0
3539,172.0
3540,169.0
3541,165.0
3542,159.0
3543,156.0
3544,149.0
3545,145.0
3546,142.0
3547,143.0
3548,137.0
3549,141.0
3550,141.0
3551,140.0
3552,138.0
3553,140.0
3554,141.0
3555,138.0
3556,138.0
3557,142.0
3558,144.0
3559,146.0
3560,147.0
3561,148.0
3562,148.0
3563,149.0
3564,146.0
3565,147.0
3566,148.0
3567,148.0
3568,150.0
3569,145.0
3570,141.0
3571,147.0
3572,149.0
3573,146.0
3574,148.0
3575,150.0
3576,151.0
3577,148.0
3578,145.0
3579,147.0
3580,149.0
3581,150.0
3582,148.0
3583,148.0
3584,149.0
3585,150.0
3586,150.0
3587,150.0
3588,151.0
3589,152.0
3590,148.0
3591,147.0
3592,147.0
3593,149.0
3594,150.0
3595,147.0
3596,148.0
3597,147.0
3598,144.0
3599,148.0
3600,147.0
3601,148.0
3602,149.0
3603,149.0
3604,147.0
3605,146.0
3606,148.0
3607,149.0
3608,148.0
3609,148.0
3610,148.0
3611,150.0
3612,149.0
3613,152.0
3614,154.0
3615,155.0
3616,151.0
3617,149.0
3618,150.0
3619,151.0
3620,154.0
3621,154.0
3622,153.0
3623,149.0
3624,149.0
3625,146.0
3626,148.0
3627,150.0
3628,149.0
3629,147.0
3630,145.0
3631,147.0
3632,149.0
3633,151.0
3634,153.0
3635,152.0
3636,150.0
3637,151.0
3638,153.0
3639,153.0
3640,153.0
3641,152.0
3642,151.0
3643,150.0
3644,150.0
3645,150.0
3646,151.0
3647,153.0
3648,152.0
3649,149.0
3650,148.0
3651,148.0
3652,149.0
3653,149.0
3654,150.0
3655,149.0
3656,146.0
3657,150.0
3658,153.0
3659,148.0
3660,150.0
3661,150.0
3662,148.0
3663,150.0
3664,155.0
3665,153.0
3666,150.0
3667,151.0
3668,152.0
3669,152.0
3670,152.0
3671,152.0
3672,155.0
3673,156.0
3674,154.0
3675,154.0
3676,153.0
3677,153.0
3678,155.0
3679,155.0
3680,154.0
3681,150.0
3682,150.0
3683,152.0
3684,153.0
3685,152.0
3686,152.0
3687,153.0
3688,149.0
3689,149.0
3690,150.0
3691,152.0
3692,158.0
3693,157.0
3694,156.0
3695,153.0
3696,153.0
3697,157.0
3698,156.0
3699,158.0
3700,158.0
3701,156.0
3702,154.0
3703,154.0
3704,156.0
3705,158.0
3706,159.0
3707,158.0
3708,157.0
3709,156.0
3710,156.0
3711,157.0
3712,158.0
3713,157.0
3714,153.0
3715,155.0
3716,158.0
3717,158.0
3718,159.0
3719,158.0
3720,158.0
3721,160.0
3722,162.0
3723,163.0
3724,163.0
3725,162.0
3726,160.0
3727,160.0
3728,163.0
3729,162.0
3730,161.0
3731,161.0
3732,162.0
3733,161.0
3734,160.0
3735,163.0
3736,161.0
3737,162.0
3738,163.0
3739,165.0
3740,163.0
3741,165.0
3742,166.0
3743,165.0
3744,163.0
3745,163.0
3746,164.0
3747,164.0
3748,166.0
3749,168.0
3750,167.0
3751,168.0
3752,170.0
3753,169.0
3754,168.0
3755,169.0
3756,167.0
3757,166.0
3758,166.0
3759,167.0
3760,167.0
3761,166.0
3762,165.0
3763,162.0
3764,161.0
3765,162.0
3766,163.0
3767,162.0
3768,166.0
3769,168.0
3770,171.0
3771,173.0
3772,172.0
3773,167.0
3774,165.0
3775,165.0
3776,165.0
3777,163.0
3778,162.0
3779,161.0
3780,159.0
3781,158.0
3782,157.0
3783,156.0
3784,156.0
3785,157.0
3786,158.0
3787,157.0
3788,155.0
3789,156.0
3790,153.0
3791,152.0
3792,152.0
3793,151.0
3794,152.0
3795,149.0
3796,150.0
3797,159.0
3798,157.0
3799,156.0
3800,154.0
3801,154.0
3802,153.0
3803,151.0
3804,150.0
3805,149.0
3806,149.0
3807,151.0
3808,151.0
3809,151.0
3810,150.0
3811,149.0
3812,148.0
3813,149.0
3814,148.0
3815,151.0
3816,154.0
3817,149.0
3818,148.0
3819,150.0
3820,151.0
3821,148.0
3822,151.0
3823,150.0
3824,151.0
3825,149.0
3826,147.0
3827,149.0
3828,148.0
3829,147.0
3830,149.0
3831,147.0
3832,150.0
3833,147.0
3834,147.0
3835,148.0
3836,150.0
3837,150.0
3838,149.0
3839,146.0
3840,147.0
3841,145.0
3842,145.0
3843,148.0
3844,147.0
3845,148.0
3846,148.0
3847,149.0
3848,148.0
3849,148.0
3850,150.0
3851,149.0
3852,151.0
3853,150.0
3854,150.0
3855,152.0
3856,152.0
3857,150.0
3858,150.0
3859,150.0
3860,147.0
3861,147.0
3862,144.0
3863,148.0
3864,146.0
3865,146.0
3866,148.0
3867,147.0
3868,148.0
3869,148.0
3870,146.0
3871,147.0
3872,148.0
3873,146.0
3874,146.0
3875,147.0
3876,149.0
3877,147.0
3878,145.0
3879,149.0
3880,150.0
3881,152.0
3882,151.0
3883,150.0
3884,149.0
3885,147.0
3886,149.0
3887,154.0
3888,149.0
3889,148.0
3890,148.0
3891,147.0
3892,146.0
3893,147.0
3894,146.0
3895,146.0
3896,146.0
3897,145.0
3898,147.0
3899,146.0
3900,147.0
3901,148.0
3902,146.0
3903,144.0
3904,146.0
3905,147.0
3906,146.0
3907,146.0
3908,146.0
3909,146.0
3910,145.0
3911,149.0
3912,149.0
3913,149.0
3914,148.0
3915,148.0
3916,147.0
3917,145.0
3918,143.0
3919,145.0
3920,148.0
3921,146.0
3922,145.0
3923,147.0
3924,148.0
3925,150.0
3926,151.0
3927,151.0
3928,150.0
3929,145.0
3930,144.0
3931,147.0
3932,149.0
3933,146.0
3934,143.0
3935,144.0
3936,153.0
3937,148.0
3938,147.0
3939,148.0
3940,149.0
3941,148.0
3942,149.0
3943,148.0
3944,148.0
3945,150.0
3946,149.0
3947,150.0
3948,150.0
3949,149.0
3950,148.0
3951,149.0
3952,148.0
3953,146.0
3954,147.0
3955,147.0
3956,145.0
3957,145.0
3958,146.0
3959,149.0
3960,149.0
3961,148.0
3962,149.0
3963,149.0
3964,144.0
3965,145.0
3966,150.0
3967,148.0
3968,146.0
3969,148.0
3970,149.0
3971,148.0
3972,150.0
3973,151.0
3974,149.0
3975,145.0
3976,147.0
3977,148.0
3978,148.0
3979,146.0
3980,146.0
3981,149.0
3982,147.0
3983,147.0
3984,148.0
3985,148.0
3986,146.0
3987,146.0
3988,145.0
3989,144.0
3990,145.0
3991,144.0
3992,148.0
3993,150.0
3994,148.0
3995,147.0
3996,148.0
3997,150.0
3998,150.0
3999,150.0
4000,150.0
4001,149.0
4002,147.0
4003,146.0
4004,148.0
4005,145.0
4006,147.0
4007,145.0
4008,145.0
4009,147.0
4010,146.0
4011,147.0
4012,147.0
4013,147.0
4014,146.0
4015,146.0
4016,144.0
4017,149.0
4018,149.0
4019,148.0
4020,153.0
4021,153.0
4022,149.0
4023,150.0
4024,148.0
4025,146.0
4026,150.0
4027,153.0
4028,151.0
4029,147.0
4030,148.0
4031,148.0
4032,146.0
4033,147.0
4034,146.0
4035,147.0
4036,147.0
4037,148.0
4038,149.0
4039,148.0
4040,149.0
4041,150.0
4042,150.0
4043,148.0
4044,147.0
4045,148.0
4046,146.0
4047,146.0
4048,148.0
4049,147.0
4050,148.0
4051,145.0
4052,144.0
4053,144.0
4054,146.0
4055,147.0
4056,146.0
4057,147.0
4058,147.0
4059,145.0
4060,145.0
4061,147.0
4062,146.0
4063,146.0
4064,145.0
4065,145.0
4066,147.0
4067,148.0
4068,149.0
4069,151.0
4070,150.0
4071,147.0
4072,145.0
4073,148.0
4074,153.0
4075,151.0
4076,148.0
4077,149.0
4078,149.0
4079,150.0
4080,146.0
4081,145.0
4082,146.0
4083,149.0
4084,148.0
4085,147.0
4086,148.0
4087,148.0
4088,150.0
4089,151.0
4090,148.0
4091,146.0
4092,145.0
4093,147.0
4094,147.0
4095,147.0
4096,145.0
4097,148.0
4098,146.0
4099,147.0
4100,148.0
4101,148.0
4102,147.0
4103,150.0
4104,149.0
4105,145.0
4106,145.0
4107,146.0
4108,148.0
4109,148.0
4110,149.0
4111,148.0
4112,149.0
4113,147.0
4114,146.0
4115,147.0
4116,145.0
4117,145.0
4118,145.0
4119,144.0
4120,146.0
4121,147.0
4122,147.0
4123,146.0
4124,147.0
4125,149.0
4126,153.0
4127,150.0
4128,148.0
4129,147.0
4130,148.0
4131,146.0
4132,146.0
4133,147.0
4134,146.0
4135,147.0
4136,146.0
4137,144.0
4138,145.0
4139,146.0
4140,147.0
4141,146.0
4142,148.0
4143,149.0
4144,150.0
4145,151.0
4146,150.0
4147,150.0
4148,148.0
4149,150.0
4150,149.0
4151,149.0
4152,148.0
4153,147.0
4154,144.0
4155,146.0
4156,146.0
4157,146.0
4158,145.0
4159,144.0
4160,146.0
4161,147.0
4162,147.0
4163,143.0
4164,147.0
4165,148.0
4166,149.0
4167,149.0
4168,148.0
4169,149.0
4170,148.0
4171,146.0
4172,148.0
4173,148.0
4174,148.0
4175,150.0
4176,151.0
4177,149.0
4178,145.0
4179,145.0
4180,147.0
4181,150.0
4182,147.0
4183,146.0
4184,149.0
4185,148.0
4186,148.0
4187,147.0
4188,147.0
4189,146.0
4190,144.0
4191,143.0
4192,145.0
4193,145.0
4194,145.0
4195,146.0
4196,145.0
4197,146.0
4198,149.0
4199,150.0
4200,149.0
4201,147.0
4202,146.0
4203,145.0
4204,144.0
4205,145.0
4206,148.0
4207,147.0
4208,145.0
4209,144.0
4210,149.0
4211,149.0
4212,149.0
4213,149.0
4214,151.0
4215,149.0
4216,146.0
4217,145.0
4218,147.0
4219,148.0
4220,149.0
4221,150.0
4222,147.0
4223,147.0
4224,148.0
4225,148.0
4226,147.0
4227,148.0
4228,148.0
4229,146.0
4230,144.0
4231,147.0
4232,146.0
4233,149.0
4234,149.0
4235,148.0
4236,147.0
4237,147.0
4238,147.0
4239,148.0
4240,147.0
4241,147.0
4242,145.0
4243,144.0
4244,147.0
4245,150.0
4246,149.0
4247,149.0
4248,145.0
4249,143.0
4250,145.0
4251,144.0
4252,149.0
4253,149.0
4254,151.0
4255,151.0
4256,150.0
4257,148.0
4258,150.0
4259,150.0
4260,145.0
4261,148.0
4262,148.0
4263,148.0
4264,148.0
4265,147.0
4266,148.0
4267,147.0
4268,147.0
4269,145.0
4270,146.0
4271,147.0
4272,148.0
4273,152.0
4274,151.0
4275,149.0
4276,148.0
4277,149.0
4278,149.0
4279,150.0
4280,149.0
4281,149.0
4282,151.0
4283,153.0
4284,152.0
4285,150.0
4286,150.0
4287,148.0
4288,152.0
4289,152.0
4290,150.0
4291,149.0
4292,148.0
4293,149.0
4294,150.0
4295,144.0
4296,146.0
4297,146.0
4298,148.0
4299,148.0
4300,148.0
4301,150.0
4302,151.0
4303,150.0
4304,152.0
4305,152.0
4306,148.0
4307,149.0
4308,151.0
4309,154.0
4310,154.0
4311,153.0
4312,154.0
4313,151.0
4314,150.0
4315,150.0
4316,148.0
4317,147.0
4318,147.0
4319,147.0
4320,146.0
4321,145.0
4322,146.0
4323,146.0
4324,147.0
4325,147.0
4326,147.0
4327,147.0
4328,144.0
4329,147.0
4330,147.0
4331,145.0
4332,143.0
4333,144.0
4334,144.0
4335,144.0
4336,142.0
4337,148.0
4338,150.0
4339,148.0
4340,148.0
4341,151.0
4342,148.0
4343,145.0
4344,146.0
4345,146.0
4346,145.0
4347,147.0
4348,147.0
4349,148.0
4350,148.0
4351,148.0
4352,146.0
4353,147.0
4354,145.0
4355,143.0
4356,144.0
4357,145.0
4358,148.0
4359,148.0
4360,146.0
4361,148.0
4362,148.0
4363,151.0
4364,150.0
4365,148.0
4366,152.0
4367,147.0
4368,148.0
4369,149.0
4370,148.0
4371,146.0
4372,147.0
4373,145.0
4374,142.0
4375,141.0
4376,140.0
4377,142.0
4378,140.0
4379,142.0
4380,142.0
4381,146.0
4382,149.0
4383,150.0
4384,150.0
4385,152.0
4386,152.0
4387,156.0
4388,160.0
4389,163.0
4390,166.0
4391,167.0
4392,172.0
4393,173.0
4394,173.0
4395,177.0
4396,177.0
4397,175.0
4398,175.0
4399,173.0
4400,175.0
4401,176.0
4402,172.0
4403,171.0
4404,172.0
4405,168.0
4406,164.0
4407,160.0
4408,154.0
4409,149.0
4410,144.0
4411,142.0
4412,140.0
4413,139.0
4414,138.0
4415,138.0
4416,138.0
4417,135.0
4418,137.0
4419,137.0
4420,137.0
4421,136.0
4422,140.0
4423,142.0
4424,142.0
4425,138.0
4426,140.0
4427,143.0
4428,145.0
4429,144.0
4430,144.0
4431,143.0
4432,143.0
4433,143.0
4434,144.0
4435,144.0
4436,149.0
4437,151.0
4438,150.0
4439,149.0
4440,150.0
4441,149.0
4442,147.0
4443,149.0
4444,149.0
4445,148.0
4446,148.0
4447,148.0
4448,147.0
4449,148.0
4450,146.0
4451,146.0
4452,147.0
4453,146.0
4454,144.0
4455,148.0
4456,148.0
4457,147.0
4458,149.0
4459,147.0
4460,146.0
4461,147.0
4462,146.0
4463,146.0
4464,146.0
4465,147.0
4466,149.0
4467,148.0
4468,149.0
4469,149.0
4470,150.0
4471,150.0
4472,150.0
4473,151.0
4474,148.0
4475,149.0
4476,149.0
4477,148.0
4478,149.0
4479,151.0
4480,151.0
4481,150.0
4482,149.0
4483,148.0
4484,147.0
4485,149.0
4486,147.0
4487,149.0
4488,148.0
4489,145.0
4490,145.0
4491,148.0
4492,147.0
4493,147.0
4494,151.0
4495,153.0
4496,153.0
4497,152.0
4498,151.0
4499,151.0
4500,151.0
4501,152.0
4502,149.0
4503,149.0
4504,150.0
4505,146.0
4506,146.0
4507,145.0
4508,146.0
4509,147.0
4510,150.0
4511,149.0
4512,150.0
4513,154.0
4514,154.0
4515,154.0
4516,152.0
4517,152.0
4518,151.0
4519,149.0
4520,149.0
4521,151.0
4522,150.0
4523,147.0
4524,145.0
4525,149.0
4526,150.0
4527,152.0
4528,150.0
4529,150.0
4530,150.0
4531,153.0
4532,151.0
4533,152.0
4534,148.0
4535,150.0
4536,150.0
4537,151.0
4538,152.0
4539,151.0
4540,152.0
4541,152.0
4542,151.0
4543,151.0
4544,152.0
4545,153.0
4546,153.0
4547,151.0
4548,151.0
4549,151.0
4550,151.0
4551,151.0
4552,153.0
4553,155.0
4554,154.0
4555,150.0
4556,149.0
4557,151.0
4558,152.0
4559,152.0
4560,152.0
4561,153.0
4562,154.0
4563,151.0
4564,151.0
4565,154.0
4566,153.0
4567,156.0
4568,157.0
4569,153.0
4570,154.0
4571,154.0
4572,152.0
4573,153.0
4574,153.0
4575,155.0
4576,155.0
4577,157.0
4578,160.0
4579,157.0
4580,156.0
4581,160.0
4582,159.0
4583,159.0
4584,157.0
4585,158.0
4586,161.0
4587,159.0
4588,154.0
4589,158.0
4590,159.0
4591,161.0
4592,160.0
4593,158.0
4594,157.0
4595,156.0
4596,160.0
4597,161.0
4598,159.0
4599,156.0
4600,157.0
4601,161.0
4602,162.0
4603,165.0
4604,167.0
4605,165.0
4606,164.0
4607,168.0
4608,166.0
4609,163.0
4610,165.0
4611,166.0
4612,162.0
4613,161.0
4614,162.0
4615,163.0
4616,164.0
4617,163.0
4618,163.0
4619,165.0
4620,164.0
4621,163.0
4622,167.0
4623,169.0
4624,166.0
4625,166.0
4626,166.0
4627,166.0
4628,164.0
4629,164.0
4630,164.0
4631,164.0
4632,164.0
4633,164.0
4634,161.0
4635,159.0
4636,161.0
4637,163.0
4638,162.0
4639,163.0
4640,161.0
4641,158.0
4642,160.0
4643,156.0
4644,158.0
4645,155.0
4646,152.0
4647,154.0
4648,152.0
4649,154.0
4650,156.0
4651,157.0
4652,154.0
4653,155.0
4654,154.0
4655,155.0
4656,155.0
4657,156.0
4658,154.0
4659,148.0
4660,147.0
4661,148.0
4662,148.0
4663,150.0
4664,151.0
4665,149.0
4666,148.0
4667,148.0
4668,148.0
4669,148.0
4670,148.0
4671,147.0
4672,146.0
4673,148.0
4674,149.0
4675,151.0
4676,148.0
4677,149.0
4678,148.0
4679,149.0
4680,146.0
4681,146.0
4682,147.0
4683,148.0
4684,145.0
4685,146.0
4686,145.0
4687,144.0
4688,144.0
4689,145.0
4690,146.0
4691,144.0
4692,145.0
4693,149.0
4694,145.0
4695,142.0
4696,144.0
4697,143.0
4698,140.0
4699,143.0
4700,143.0
4701,143.0
4702,142.0
4703,140.0
4704,140.0
4705,140.0
4706,140.0
4707,142.0
4708,143.0
4709,143.0
4710,144.0
4711,144.0
4712,144.0
4713,144.0
4714,146.0
4715,146.0
4716,143.0
4717,143.0
4718,142.0
4719,141.0
4720,143.0
4721,143.0
4722,142.0
4723,145.0
4724,145.0
4725,146.0
4726,145.0
4727,145.0
4728,146.0
4729,141.0
4730,142.0
4731,144.0
4732,144.0
4733,144.0
4734,144.0
4735,142.0
4736,140.0
4737,143.0
4738,143.0
4739,145.0
4740,148.0
4741,149.0
4742,144.0
4743,142.0
4744,144.0
4745,145.0
4746,146.0
4747,143.0
4748,138.0
4749,142.0
4750,147.0
4751,145.0
4752,146.0
4753,147.0
4754,145.0
4755,147.0
4756,145.0
4757,139.0
4758,143.0
4759,143.0
4760,142.0
4761,143.0
4762,144.0
4763,143.0
4764,143.0
4765,141.0
4766,141.0
4767,140.0
4768,142.0
4769,144.0
4770,145.0
4771,146.0
4772,147.0
4773,146.0
4774,146.0
4775,145.0
4776,146.0
4777,142.0
4778,141.0
4779,141.0
4780,143.0
4781,144.0
4782,144.0
4783,145.0
4784,141.0
4785,140.0
4786,142.0
4787,144.0
4788,144.0
4789,146.0
4790,148.0
4791,148.0
4792,146.0
4793,147.0
4794,146.0
4795,147.0
4796,144.0
4797,141.0
4798,140.0
4799,142.0
4800,144.0
4801,143.0
4802,143.0
4803,143.0
4804,141.0
4805,143.0
4806,146.0
4807,145.0
4808,146.0
4809,146.0
4810,149.0
4811,147.0
4812,145.0
4813,145.0
4814,147.0
4815,145.0
4816,144.0
4817,143.0
4818,142.0
4819,146.0
4820,147.0
4821,145.0
4822,146.0
4823,145.0
4824,144.0
4825,144.0
4826,143.0
4827,144.0
4828,143.0
4829,140.0
4830,138.0
4831,143.0
4832,141.0
4833,142.0
4834,145.0
4835,145.0
4836,144.0
4837,142.0
4838,142.0
4839,144.0
4840,146.0
4841,146.0
4842,143.0
4843,144.0
4844,146.0
4845,145.0
4846,147.0
4847,145.0
4848,145.0
4849,148.0
4850,144.0
4851,143.0
4852,143.0
4853,143.0
4854,146.0
4855,147.0
4856,146.0
4857,145.0
4858,145.0
4859,150.0
4860,145.0
4861,144.0
4862,143.0
4863,143.0
4864,145.0
4865,144.0
4866,145.0
4867,146.0
4868,145.0
4869,144.0
4870,146.0
4871,146.0
4872,146.0
4873,147.0
4874,144.0
4875,142.0
4876,140.0
4877,142.0
4878,144.0
4879,145.0
4880,141.0
4881,143.0
4882,142.0
4883,141.0
4884,142.0
4885,144.0
4886,147.0
4887,146.0
4888,146.0
4889,148.0
4890,148.0
4891,147.0
4892,148.0
4893,145.0
4894,148.0
4895,147.0
4896,145.0
4897,145.0
4898,147.0
4899,147.0
4900,147.0
4901,146.0
4902,146.0
4903,147.0
4904,146.0
4905,147.0
4906,148.0
4907,143.0
4908,144.0
4909,143.0
4910,143.0
4911,144.0
4912,143.0
4913,144.0
4914,148.0
4915,149.0
4916,150.0
4917,151.0
4918,150.0
4919,149.0
4920,147.0
4921,143.0
4922,143.0
4923,142.0
4924,145.0
4925,143.0
4926,144.0
4927,147.0
4928,150.0
4929,149.0
4930,150.0
4931,150.0
4932,149.0
4933,146.0
4934,146.0
4935,149.0
4936,147.0
4937,144.0
4938,145.0
4939,144.0
4940,147.0
4941,149.0
4942,148.0
4943,147.0
4944,146.0
4945,148.0
4946,149.0
4947,144.0
4948,148.0
4949,146.0
4950,146.0
4951,147.0
4952,146.0
4953,146.0
4954,146.0
4955,146.0
4956,148.0
4957,147.0
4958,147.0
4959,146.0
4960,144.0
4961,149.0
4962,150.0
4963,149.0
4964,148.0
4965,148.0
4966,149.0
4967,150.0
4968,150.0
4969,150.0
4970,150.0
4971,151.0
4972,150.0
4973,148.0
4974,150.0
4975,147.0
4976,146.0
4977,146.0
4978,147.0
4979,148.0
4980,147.0
4981,148.0
4982,148.0
4983,148.0
4984,149.0
4985,152.0
4986,151.0
4987,150.0
4988,148.0
4989,147.0
4990,150.0
4991,149.0
4992,150.0
4993,149.0
4994,148.0
4995,149.0
4996,151.0
4997,150.0
4998,147.0
4999,146.0
5000,146.0
5001,147.0
5002,149.0
5003,147.0
5004,146.0
5005,148.0
5006,151.0
5007,148.0
5008,147.0
5009,146.0
5010,148.0
5011,151.0
5012,150.0
5013,153.0
5014,152.0
5015,151.0
5016,148.0
5017,149.0
5018,149.0
5019,149.0
5020,148.0
5021,150.0
5022,152.0
5023,154.0
5024,151.0
5025,147.0
5026,149.0
5027,152.0
5028,152.0
5029,153.0
5030,148.0
5031,145.0
5032,146.0
5033,152.0
5034,151.0
5035,152.0
5036,151.0
5037,151.0
5038,150.0
5039,154.0
5040,153.0
5041,151.0
5042,148.0
5043,149.0
5044,150.0
5045,149.0
5046,150.0
5047,151.0
5048,151.0
5049,151.0
5050,151.0
5051,149.0
5052,151.0
5053,151.0
5054,151.0
5055,152.0
5056,153.0
5057,154.0
5058,152.0
5059,152.0
5060,153.0
5061,150.0
5062,152.0
5063,153.0
5064,152.0
5065,152.0
5066,152.0
5067,152.0
5068,150.0
5069,149.0
5070,148.0
5071,148.0
5072,150.0
5073,151.0
5074,149.0
5075,153.0
5076,153.0
5077,152.0
5078,153.0
5079,154.0
5080,152.0
5081,151.0
5082,150.0
5083,151.0
5084,150.0
5085,153.0
5086,153.0
5087,151.0
5088,151.0
5089,153.0
5090,153.0
5091,153.0
5092,151.0
5093,151.0
5094,151.0
5095,150.0
5096,149.0
5097,150.0
5098,150.0
5099,149.0
5100,150.0
5101,151.0
5102,151.0
5103,150.0
5104,152.0
5105,152.0
5106,155.0
5107,156.0
5108,152.0
5109,153.0
5110,155.0
5111,154.0
5112,153.0
5113,151.0
5114,152.0
5115,153.0
5116,152.0
5117,151.0
5118,152.0
5119,151.0
5120,152.0
5121,150.0
5122,151.0
5123,151.0
5124,154.0
5125,153.0
5126,153.0
5127,152.0
5128,157.0
5129,153.0
5130,154.0
5131,152.0
5132,152.0
5133,153.0
5134,155.0
5135,155.0
5136,157.0
5137,153.0
5138,154.0
5139,153.0
5140,152.0
5141,152.0
5142,152.0
5143,151.0
5144,151.0
5145,151.0
5146,152.0
5147,152.0
5148,156.0
5149,150.0
5150,156.0
5151,156.0
5152,155.0
5153,154.0
5154,157.0
5155,156.0
5156,152.0
5157,152.0
5158,151.0
5159,151.0
5160,151.0
5161,151.0
5162,152.0
5163,154.0
5164,154.0
5165,154.0
5166,155.0
5167,154.0
5168,153.0
5169,153.0
5170,151.0
5171,154.0
5172,154.0
5173,153.0
5174,150.0
5175,152.0
5176,153.0
5177,155.0
5178,155.0
5179,156.0
5180,157.0
5181,157.0
5182,159.0
5183,158.0
5184,158.0
5185,156.0
5186,158.0
5187,159.0
5188,157.0
5189,155.0
5190,156.0
5191,156.0
5192,155.0
5193,154.0
5194,154.0
5195,155.0
5196,154.0
5197,157.0
5198,153.0
5199,156.0
5200,157.0
5201,158.0
5202,156.0
5203,158.0
5204,158.0
5205,158.0
5206,159.0
5207,155.0
5208,153.0
5209,152.0
5210,152.0
5211,152.0
5212,149.0
5213,151.0
5214,154.0
5215,155.0
5216,152.0
5217,153.0
5218,154.0
5219,156.0
5220,154.0
5221,153.0
5222,155.0
5223,157.0
5224,158.0
5225,157.0
5226,156.0
5227,157.0
5228,156.0
5229,154.0
5230,156.0
5231,156.0
5232,155.0
5233,153.0
5234,151.0
5235,151.0
5236,151.0
5237,151.0
5238,155.0
5239,153.0
5240,155.0
5241,154.0
5242,154.0
5243,156.0
5244,155.0
5245,154.0
5246,153.0
5247,154.0
5248,155.0
5249,152.0
5250,155.0
5251,152.0
5252,153.0
5253,153.0
5254,153.0
5255,149.0
5256,148.0
5257,148.0
5258,151.0
5259,151.0
5260,149.0
5261,149.0
5262,155.0
5263,154.0
5264,157.0
5265,158.0
5266,157.0
5267,156.0
5268,153.0
5269,153.0
5270,152.0
5271,153.0
5272,151.0
5273,151.0
5274,150.0
5275,148.0
5276,149.0
5277,149.0
5278,147.0
5279,150.0
5280,154.0
5281,154.0
5282,153.0
5283,154.0
5284,155.0
5285,156.0
5286,158.0
5287,165.0
5288,167.0
5289,170.0
5290,172.0
5291,173.0
5292,173.0
5293,174.0
5294,175.0
5295,176.0
5296,176.0
5297,175.0
5298,178.0
5299,184.0
5300,188.0
5301,187.0
5302,184.0
5303,185.0
5304,186.0
5305,184.0
5306,180.0
5307,173.0
5308,164.0
5309,161.0
5310,158.0
5311,153.0
5312,149.0
5313,147.0
5314,147.0
5315,147.0
5316,146.0
5317,146.0
5318,146.0
5319,143.0
5320,141.0
5321,142.0
5322,146.0
5323,150.0
5324,151.0
5325,153.0
5326,154.0
5327,154.0
5328,155.0
5329,154.0
5330,154.0
5331,155.0
5332,153.0
5333,153.0
5334,152.0
5335,153.0
5336,155.0
5337,155.0
5338,152.0
5339,151.0
5340,153.0
5341,153.0
5342,152.0
5343,154.0
5344,154.0
5345,153.0
5346,154.0
5347,158.0
5348,156.0
5349,156.0
5350,154.0
5351,154.0
5352,155.0
5353,153.0
5354,155.0
5355,155.0
5356,154.0
5357,153.0
5358,155.0
5359,155.0
5360,155.0
5361,155.0
5362,153.0
5363,154.0
5364,154.0
5365,158.0
5366,160.0
5367,158.0
5368,157.0
5369,158.0
5370,155.0
5371,155.0
5372,155.0
5373,154.0
5374,154.0
5375,154.0
5376,153.0
5377,151.0
5378,152.0
5379,153.0
5380,154.0
5381,153.0
5382,153.0
5383,157.0
5384,157.0
5385,156.0
5386,159.0
5387,160.0
5388,159.0
5389,155.0
5390,155.0
5391,157.0
5392,157.0
5393,153.0
5394,158.0
5395,156.0
5396,155.0
5397,158.0
5398,158.0
5399,158.0
5400,158.0
5401,154.0
5402,154.0
5403,155.0
5404,156.0
5405,156.0
5406,154.0
5407,152.0
5408,154.0
5409,154.0
5410,153.0
5411,153.0
5412,157.0
5413,157.0
5414,158.0
5415,155.0
5416,155.0
5417,158.0
5418,158.0
5419,156.0
5420,155.0
5421,153.0
5422,153.0
5423,154.0
5424,155.0
5425,157.0
5426,157.0
5427,157.0
5428,155.0
5429,155.0
5430,156.0
5431,154.0
5432,157.0
5433,158.0
5434,157.0
5435,157.0
5436,157.0
5437,157.0
5438,157.0
5439,157.0
5440,157.0
5441,157.0
5442,157.0
5443,156.0
5444,156.0
5445,159.0
5446,161.0
5447,161.0
5448,160.0
5449,160.0
5450,159.0
5451,157.0
5452,155.0
5453,156.0
5454,158.0
5455,156.0
5456,159.0
5457,157.0
5458,159.0
5459,159.0
5460,157.0
5461,158.0
5462,159.0
5463,159.0
5464,158.0
5465,158.0
5466,158.0
5467,160.0
5468,159.0
5469,163.0
5470,164.0
5471,164.0
5472,162.0
5473,160.0
5474,159.0
5475,161.0
5476,161.0
5477,164.0
5478,160.0
5479,159.0
5480,159.0
5481,160.0
5482,163.0
5483,164.0
5484,164.0
5485,164.0
5486,162.0
5487,164.0
5488,167.0
5489,162.0
5490,164.0
5491,162.0
5492,161.0
5493,161.0
5494,161.0
5495,162.0
5496,164.0
5497,165.0
5498,164.0
5499,164.0
5500,168.0
5501,170.0
5502,166.0
5503,164.0
5504,164.0
5505,170.0
5506,169.0
5507,167.0
5508,167.0
5509,165.0
5510,169.0
5511,168.0
5512,167.0
5513,168.0
5514,171.0
5515,171.0
5516,173.0
5517,169.0
5518,168.0
5519,169.0
5520,167.0
5521,167.0
5522,167.0
5523,170.0
5524,169.0
5525,168.0
5526,170.0
5527,173.0
5528,174.0
5529,173.0
5530,174.0
5531,170.0
5532,167.0
5533,167.0
5534,169.0
5535,169.0
5536,168.0
5537,167.0
5538,167.0
5539,168.0
5540,166.0
5541,162.0
5542,164.0
5543,168.0
5544,166.0
5545,165.0
5546,163.0
5547,163.0
5548,164.0
5549,164.0
5550,159.0
5551,159.0
5552,160.0
5553,160.0
5554,158.0
5555,158.0
5556,156.0
5557,158.0
5558,159.0
5559,156.0
5560,155.0
5561,156.0
5562,155.0
5563,153.0
5564,152.0
5565,151.0
5566,153.0
5567,154.0
5568,154.0
5569,153.0
5570,154.0
5571,154.0
5572,154.0
5573,157.0
5574,154.0
5575,153.0
5576,154.0
5577,155.0
5578,150.0
5579,151.0
5580,151.0
5581,150.0
5582,151.0
5583,152.0
5584,152.0
5585,152.0
5586,151.0
5587,150.0
5588,150.0
5589,149.0
5590,147.0
5591,148.0
5592,149.0
5593,148.0
5594,147.0
5595,148.0
5596,148.0
5597,147.0
5598,145.0
5599,144.0
5600,147.0
5601,148.0
5602,149.0
5603,148.0
5604,149.0
5605,149.0
5606,156.0
5607,154.0
5608,156.0
5609,158.0
5610,155.0
5611,150.0
5612,149.0
5613,152.0
5614,151.0
5615,148.0
5616,148.0
5617,152.0
5618,150.0
5619,149.0
5620,150.0
5621,147.0
5622,146.0
5623,145.0
5624,149.0
5625,146.0
5626,147.0
5627,147.0
5628,148.0
5629,149.0
5630,149.0
5631,147.0
5632,147.0
5633,149.0
5634,150.0
5635,153.0
5636,151.0
5637,149.0
5638,149.0
5639,148.0
5640,145.0
5641,146.0
5642,145.0
5643,144.0
5644,144.0
5645,149.0
5646,150.0
5647,146.0
5648,145.0
5649,149.0
5650,148.0
5651,149.0
5652,151.0
5653,150.0
5654,154.0
5655,153.0
5656,151.0
5657,149.0
5658,150.0
5659,147.0
5660,147.0
5661,148.0
5662,146.0
5663,146.0
5664,148.0
5665,150.0
5666,150.0
5667,149.0
5668,150.0
5669,148.0
5670,149.0
5671,149.0
5672,147.0
5673,147.0
5674,148.0
5675,150.0
5676,144.0
5677,148.0
5678,150.0
5679,148.0
5680,147.0
5681,148.0
5682,149.0
5683,147.0
5684,148.0
5685,149.0
5686,149.0
5687,151.0
5688,152.0
5689,149.0
5690,148.0
5691,148.0
5692,146.0
5693,145.0
5694,145.0
5695,145.0
5696,147.0
5697,148.0
5698,146.0
5699,149.0
5700,148.0
5701,147.0
5702,147.0
5703,146.0
5704,147.0
5705,147.0
5706,147.0
5707,149.0
5708,147.0
5709,150.0
5710,150.0
5711,151.0
5712,148.0
5713,147.0
5714,147.0
5715,147.0
5716,147.0
5717,146.0
5718,146.0
5719,145.0
5720,146.0
5721,147.0
5722,150.0
5723,149.0
5724,147.0
5725,148.0
5726,148.0
5727,148.0
5728,148.0
5729,147.0
5730,150.0
5731,152.0
5732,148.0
5733,145.0
5734,149.0
5735,148.0
5736,146.0
5737,148.0
5738,148.0
5739,147.0
5740,146.0
5741,147.0
5742,147.0
5743,147.0
5744,147.0
5745,146.0
5746,144.0
5747,142.0
5748,143.0
5749,145.0
5750,149.0
5751,150.0
5752,151.0
5753,152.0
5754,149.0
5755,151.0
5756,149.0
5757,147.0
5758,147.0
5759,146.0
5760,146.0
5761,147.0
5762,149.0
5763,145.0
5764,147.0
5765,149.0
5766,145.0
5767,145.0
5768,144.0
5769,147.0
5770,149.0
5771,147.0
5772,147.0
5773,146.0
5774,145.0
5775,149.0
5776,148.0
5777,146.0
5778,145.0
5779,145.0
5780,146.0
5781,146.0
5782,145.0
5783,147.0
5784,147.0
5785,146.0
5786,147.0
5787,145.0
5788,145.0
5789,147.0
5790,149.0
5791,147.0
5792,145.0
5793,146.0
5794,145.0
5795,147.0
5796,149.0
5797,146.0
5798,146.0
5799,146.0
5800,146.0
5801,148.0
5802,147.0
5803,149.0
5804,149.0
5805,147.0
5806,145.0
5807,145.0
5808,145.0
5809,143.0
5810,146.0
5811,146.0
5812,145.0
5813,146.0
5814,148.0
5815,149.0
5816,149.0
5817,147.0
5818,148.0
5819,147.0
5820,143.0
5821,147.0
5822,146.0
5823,147.0
5824,147.0
5825,147.0
5826,146.0
5827,145.0
5828,145.0
5829,144.0
5830,146.0
5831,147.0
5832,143.0
5833,144.0
5834,143.0
5835,147.0
5836,147.0
5837,145.0
5838,147.0
5839,146.0
5840,147.0
5841,148.0
5842,149.0
5843,148.0
5844,149.0
5845,150.0
5846,144.0
5847,145.0
5848,146.0
5849,144.0
5850,144.0
5851,144.0
5852,144.0
5853,143.0
5854,144.0
5855,144.0
5856,144.0
5857,145.0
5858,145.0
5859,144.0
5860,146.0
5861,145.0
5862,145.0
5863,146.0
5864,146.0
5865,148.0
5866,149.0
5867,148.0
5868,148.0
5869,146.0
5870,149.0
5871,148.0
5872,145.0
5873,146.0
5874,143.0
5875,144.0
5876,145.0
5877,149.0
5878,148.0
5879,146.0
5880,146.0
5881,146.0
5882,147.0
5883,147.0
5884,146.0
5885,146.0
5886,144.0
5887,144.0
5888,144.0
5889,144.0
5890,145.0
5891,147.0
5892,146.0
5893,145.0
5894,145.0
5895,145.0
5896,143.0
5897,145.0
5898,146.0
5899,146.0
5900,147.0
5901,146.0
5902,144.0
5903,143.0
5904,144.0
5905,146.0
5906,145.0
5907,145.0
5908,145.0
5909,141.0
5910,141.0
5911,141.0
5912,142.0
5913,143.0
5914,144.0
5915,144.0
5916,145.0
5917,148.0
5918,146.0
5919,144.0
5920,150.0
5921,150.0
5922,150.0
5923,150.0
5924,150.0
5925,147.0
5926,146.0
5927,146.0
5928,146.0
5929,144.0
5930,146.0
5931,144.0
5932,143.0
5933,143.0
5934,143.0
5935,145.0
5936,146.0
5937,146.0
5938,147.0
5939,148.0
5940,149.0
5941,147.0
5942,146.0
5943,147.0
5944,147.0
5945,146.0
5946,148.0
5947,147.0
5948,145.0
5949,145.0
5950,145.0
5951,143.0
5952,145.0
5953,144.0
5954,146.0
5955,141.0
5956,142.0
5957,150.0
5958,145.0
5959,144.0
5960,144.0
5961,142.0
5962,141.0
5963,141.0
5964,141.0
5965,144.0
5966,147.0
5967,150.0
5968,147.0
5969,144.0
5970,147.0
5971,145.0
5972,147.0
5973,148.0
5974,147.0
5975,147.0
5976,146.0
5977,146.0
5978,145.0
5979,144.0
5980,146.0
5981,145.0
5982,145.0
5983,144.0
5984,145.0
5985,146.0
5986,145.0
5987,144.0
5988,144.0
5989,143.0
5990,145.0
5991,146.0
5992,144.0
5993,146.0
5994,146.0
5995,146.0
5996,146.0
5997,147.0
5998,144.0
5999,143.0
6000,148.0
6001,148.0
6002,145.0
6003,141.0
6004,147.0
6005,147.0
6006,147.0
6007,144.0
6008,143.0
6009,144.0
6010,145.0
6011,144.0
6012,146.0
6013,145.0
6014,145.0
6015,145.0
6016,144.0
6017,144.0
6018,144.0
6019,144.0
6020,144.0
6021,143.0
6022,143.0
6023,143.0
6024,144.0
6025,146.0
6026,145.0
6027,146.0
6028,147.0
6029,146.0
6030,149.0
6031,149.0
6032,149.0
6033,142.0
6034,141.0
6035,143.0
6036,143.0
6037,144.0
6038,145.0
6039,147.0
6040,146.0
6041,144.0
6042,145.0
6043,144.0
6044,146.0
6045,146.0
6046,148.0
6047,141.0
6048,141.0
6049,143.0
6050,146.0
6051,144.0
6052,145.0
6053,145.0
6054,145.0
6055,145.0
6056,143.0
6057,146.0
6058,147.0
6059,143.0
6060,143.0
6061,144.0
6062,146.0
6063,146.0
6064,146.0
6065,144.0
6066,144.0
6067,143.0
6068,144.0
6069,145.0
6070,144.0
6071,147.0
6072,146.0
6073,144.0
6074,144.0
6075,144.0
6076,144.0
6077,146.0
6078,146.0
6079,143.0
6080,145.0
6081,145.0
6082,146.0
6083,143.0
6084,144.0
6085,144.0
6086,145.0
6087,144.0
6088,146.0
6089,149.0
6090,146.0
6091,147.0
6092,147.0
6093,146.0
6094,144.0
6095,146.0
6096,144.0
6097,145.0
6098,144.0
6099,142.0
6100,144.0
6101,145.0
6102,146.0
6103,145.0
6104,144.0
6105,143.0
6106,144.0
6107,143.0
6108,143.0
6109,144.0
6110,148.0
6111,144.0
6112,142.0
6113,143.0
6114,142.0
6115,144.0
6116,146.0
6117,148.0
6118,150.0
6119,148.0
6120,146.0
6121,146.0
6122,146.0
6123,146.0
6124,143.0
6125,143.0
6126,145.0
6127,145.0
6128,150.0
6129,141.0
6130,144.0
6131,144.0
6132,143.0
6133,143.0
6134,145.0
6135,144.0
6136,144.0
6137,143.0
6138,147.0
6139,150.0
6140,149.0
6141,146.0
6142,148.0
6143,148.0
6144,148.0
6145,148.0
6146,147.0
6147,148.0
6148,149.0
6149,148.0
6150,147.0
6151,147.0
6152,147.0
6153,148.0
6154,147.0
6155,145.0
6156,145.0
6157,149.0
6158,147.0
6159,144.0
6160,145.0
6161,146.0
6162,144.0
6163,145.0
6164,147.0
6165,148.0
6166,151.0
6167,147.0
6168,146.0
6169,147.0
6170,148.0
6171,147.0
6172,145.0
6173,147.0
6174,146.0
6175,148.0
6176,146.0
6177,143.0
6178,142.0
6179,144.0
6180,147.0
6181,148.0
6182,147.0
6183,146.0
6184,147.0
6185,147.0
6186,146.0
6187,146.0
6188,146.0
6189,143.0
6190,142.0
6191,144.0
6192,143.0
6193,142.0
6194,144.0
6195,144.0
6196,142.0
6197,139.0
6198,140.0
6199,144.0
6200,144.0
6201,146.0
6202,147.0
6203,145.0
6204,145.0
6205,145.0
6206,144.0
6207,144.0
6208,145.0
6209,144.0
6210,143.0
6211,141.0
6212,141.0
6213,140.0
6214,141.0
6215,143.0
6216,144.0
6217,145.0
6218,150.0
6219,138.0
6220,143.0
6221,143.0
6222,144.0
6223,145.0
6224,142.0
6225,143.0
6226,144.0
6227,148.0
6228,147.0
6229,142.0
6230,141.0
6231,140.0
6232,140.0
6233,146.0
6234,148.0
6235,146.0
6236,144.0
6237,140.0
6238,141.0
6239,140.0
6240,138.0
6241,140.0
6242,140.0
6243,140.0
6244,141.0
6245,141.0
6246,142.0
6247,146.0
6248,145.0
6249,146.0
6250,148.0
6251,154.0
6252,160.0
6253,163.0
6254,164.0
6255,164.0
6256,168.0
6257,170.0
6258,168.0
6259,171.0
6260,171.0
6261,171.0
6262,172.0
6263,173.0
6264,175.0
6265,174.0
6266,173.0
6267,174.0
6268,171.0
6269,170.0
6270,171.0
6271,165.0
6272,159.0
6273,154.0
6274,147.0
6275,144.0
6276,140.0
6277,138.0
6278,136.0
6279,133.0
6280,134.0
6281,137.0
6282,139.0
6283,141.0
6284,138.0
6285,137.0
6286,139.0
6287,141.0
6288,141.0
6289,142.0
6290,142.0
6291,142.0
6292,141.0
6293,139.0
6294,140.0
6295,143.0
6296,142.0
6297,141.0
6298,143.0
6299,145.0
6300,143.0
6301,148.0
6302,147.0
6303,145.0
6304,148.0
6305,148.0
6306,147.0
6307,142.0
6308,142.0
6309,146.0
6310,146.0
6311,144.0
6312,144.0
6313,145.0
6314,148.0
6315,146.0
6316,148.0
6317,148.0
6318,147.0
6319,146.0
6320,148.0
6321,146.0
6322,145.0
6323,143.0
6324,141.0
6325,142.0
6326,144.0
6327,145.0
6328,143.0
6329,145.0
6330,146.0
6331,146.0
6332,147.0
6333,149.0
6334,148.0
6335,146.0
6336,147.0
6337,148.0
6338,147.0
6339,145.0
6340,145.0
6341,144.0
6342,145.0
6343,147.0
6344,145.0
6345,146.0
6346,146.0
6347,146.0
6348,146.0
6349,149.0
6350,149.0
6351,147.0
6352,147.0
6353,148.0
6354,148.0
6355,148.0
6356,150.0
6357,151.0
6358,149.0
6359,148.0
6360,144.0
6361,143.0
6362,142.0
6363,145.0
6364,147.0
6365,149.0
6366,149.0
6367,151.0
6368,150.0
6369,149.0
6370,149.0
6371,152.0
6372,150.0
6373,148.0
6374,148.0
6375,147.0
6376,147.0
6377,149.0
6378,150.0
6379,150.0
6380,151.0
6381,147.0
6382,147.0
6383,149.0
6384,148.0
6385,149.0
6386,147.0
6387,145.0
6388,148.0
6389,150.0
6390,150.0
6391,149.0
6392,150.0
6393,149.0
6394,147.0
6395,148.0
6396,148.0
6397,150.0
6398,150.0
6399,148.0
6400,149.0
6401,151.0
6402,153.0
6403,152.0
6404,151.0
6405,151.0
6406,148.0
6407,147.0
6408,150.0
6409,149.0
6410,148.0
6411,148.0
6412,148.0
6413,149.0
6414,148.0
6415,152.0
6416,156.0
6417,159.0
6418,159.0
6419,157.0
6420,154.0
6421,153.0
6422,151.0
6423,151.0
6424,152.0
6425,152.0
6426,149.0
6427,150.0
6428,152.0
6429,151.0
6430,152.0
6431,153.0
6432,155.0
6433,153.0
6434,156.0
6435,157.0
6436,157.0
6437,159.0
6438,154.0
6439,153.0
6440,152.0
6441,155.0
6442,156.0
6443,157.0
6444,158.0
6445,159.0
6446,154.0
6447,155.0
6448,155.0
6449,156.0
6450,156.0
6451,156.0
6452,159.0
6453,158.0
6454,158.0
6455,159.0
6456,157.0
6457,157.0
6458,161.0
6459,156.0
6460,162.0
6461,163.0
6462,163.0
6463,161.0
6464,161.0
6465,159.0
6466,160.0
6467,164.0
6468,162.0
6469,158.0
6470,162.0
6471,161.0
6472,161.0
6473,161.0
6474,160.0
6475,163.0
6476,164.0
6477,165.0
6478,162.0
6479,162.0
6480,163.0
6481,162.0
6482,165.0
6483,166.0
6484,167.0
6485,163.0
6486,165.0
6487,167.0
6488,167.0
6489,167.0
6490,167.0
6491,166.0
6492,165.0
6493,165.0
6494,166.0
6495,164.0
6496,163.0
6497,164.0
6498,165.0
6499,165.0
6500,163.0
6501,166.0
6502,166.0
6503,164.0
6504,161.0
6505,166.0
6506,166.0
6507,163.0
6508,162.0
6509,161.0
6510,158.0
6511,156.0
6512,158.0
6513,158.0
6514,158.0
6515,156.0
6516,158.0
6517,159.0
6518,158.0
6519,156.0
6520,156.0
6521,156.0
6522,152.0
6523,151.0
6524,151.0
6525,152.0
6526,152.0
6527,151.0
6528,151.0
6529,152.0
6530,151.0
6531,151.0
6532,151.0
6533,151.0
6534,150.0
6535,147.0
6536,147.0
6537,148.0
6538,146.0
6539,144.0
6540,146.0
6541,145.0
6542,144.0
6543,146.0
6544,147.0
6545,149.0
6546,150.0
6547,151.0
6548,152.0
6549,151.0
6550,152.0
6551,147.0
6552,147.0
6553,147.0
6554,147.0
6555,147.0
6556,148.0
6557,146.0
6558,146.0
6559,147.0
6560,146.0
6561,146.0
6562,146.0
6563,143.0
6564,147.0
6565,147.0
6566,145.0
6567,144.0
6568,145.0
6569,150.0
6570,145.0
6571,145.0
6572,147.0
6573,148.0
6574,150.0
6575,151.0
6576,153.0
6577,147.0
6578,144.0
6579,145.0
6580,146.0
6581,145.0
6582,144.0
6583,146.0
6584,147.0
6585,149.0
6586,148.0
6587,148.0
6588,148.0
6589,145.0
6590,150.0
6591,148.0
6592,144.0
6593,147.0
6594,145.0
6595,147.0
6596,148.0
6597,149.0
6598,146.0
6599,147.0
6600,148.0
6601,145.0
6602,145.0
6603,146.0
6604,147.0
6605,147.0
6606,147.0
6607,147.0
6608,149.0
6609,147.0
6610,146.0
6611,147.0
6612,146.0
6613,146.0
6614,144.0
6615,144.0
6616,145.0
6617,144.0
6618,144.0
6619,145.0
6620,147.0
6621,148.0
6622,146.0
6623,146.0
6624,145.0
6625,147.0
6626,147.0
6627,148.0
6628,144.0
6629,144.0
6630,143.0
6631,141.0
6632,141.0
6633,142.0
6634,142.0
6635,150.0
6636,149.0
6637,149.0
6638,151.0
6639,150.0
6640,146.0
6641,143.0
6642,142.0
6643,144.0
6644,146.0
6645,146.0
6646,148.0
6647,146.0
6648,146.0
6649,145.0
6650,147.0
6651,148.0
6652,147.0
6653,147.0
6654,145.0
6655,147.0
6656,147.0
6657,148.0
6658,147.0
6659,146.0
6660,148.0
6661,150.0
6662,148.0
6663,147.0
6664,145.0
6665,145.0
6666,146.0
6667,145.0
6668,145.0
6669,145.0
6670,144.0
6671,146.0
6672,148.0
6673,147.0
6674,148.0
6675,148.0
6676,147.0
6677,148.0
6678,149.0
6679,151.0
6680,142.0
6681,145.0
6682,145.0
6683,145.0
6684,146.0
6685,142.0
6686,140.0
6687,139.0
6688,147.0
6689,149.0
6690,149.0
6691,148.0
6692,147.0
6693,145.0
6694,146.0
6695,148.0
6696,146.0
6697,145.0
6698,146.0
6699,145.0
6700,148.0
6701,148.0
6702,148.0
6703,150.0
6704,148.0
6705,149.0
6706,149.0
6707,148.0
6708,147.0
6709,146.0
6710,145.0
6711,146.0
6712,146.0
6713,145.0
6714,146.0
6715,144.0
6716,145.0
6717,146.0
6718,144.0
6719,143.0
6720,144.0
6721,145.0
6722,144.0
6723,143.0
6724,144.0
6725,147.0
6726,149.0
6727,150.0
6728,149.0
6729,151.0
6730,147.0
6731,145.0
6732,146.0
6733,151.0
6734,149.0
6735,146.0
6736,146.0
6737,146.0
6738,147.0
6739,143.0
6740,141.0
6741,143.0
6742,144.0
6743,144.0
6744,145.0
6745,144.0
6746,143.0
6747,143.0
6748,146.0
6749,147.0
6750,145.0
6751,147.0
6752,150.0
6753,151.0
6754,152.0
6755,149.0
6756,147.0
6757,145.0
6758,143.0
6759,142.0
6760,145.0
6761,149.0
6762,146.0
6763,143.0
6764,144.0
6765,144.0
6766,143.0
6767,144.0
6768,146.0
6769,145.0
6770,147.0
6771,146.0
6772,149.0
6773,149.0
6774,147.0
6775,147.0
6776,149.0
6777,149.0
6778,149.0
6779,149.0
6780,149.0
6781,145.0
6782,146.0
6783,147.0
6784,146.0
6785,144.0
6786,146.0
6787,144.0
6788,140.0
6789,148.0
6790,148.0
6791,147.0
6792,147.0
6793,146.0
6794,147.0
6795,148.0
6796,147.0
6797,146.0
6798,144.0
6799,146.0
6800,149.0
6801,148.0
6802,145.0
6803,145.0
6804,148.0
6805,145.0
6806,145.0
6807,147.0
6808,149.0
6809,148.0
6810,147.0
6811,146.0
6812,148.0
6813,147.0
6814,147.0
6815,147.0
6816,147.0
6817,148.0
6818,148.0
6819,147.0
6820,145.0
6821,144.0
6822,142.0
6823,139.0
6824,142.0
6825,146.0
6826,150.0
6827,148.0
6828,146.0
6829,145.0
6830,143.0
6831,143.0
6832,145.0
6833,145.0
6834,147.0
6835,149.0
6836,146.0
6837,145.0
6838,144.0
6839,148.0
6840,145.0
6841,145.0
6842,145.0
6843,145.0
6844,145.0
6845,144.0
6846,143.0
6847,143.0
6848,146.0
6849,148.0
6850,150.0
6851,154.0
6852,148.0
6853,147.0
6854,148.0
6855,146.0
6856,149.0
6857,150.0
6858,146.0
6859,148.0
6860,150.0
6861,149.0
6862,147.0
6863,147.0
6864,147.0
6865,148.0
6866,146.0
6867,146.0
6868,144.0
6869,143.0
6870,144.0
6871,145.0
6872,146.0
6873,145.0
6874,146.0
6875,147.0
6876,148.0
6877,149.0
6878,148.0
6879,146.0
6880,147.0
6881,146.0
6882,145.0
6883,147.0
6884,147.0
6885,147.0
6886,144.0
6887,143.0
6888,146.0
6889,145.0
6890,148.0
6891,149.0
6892,146.0
6893,144.0
6894,146.0
6895,147.0
6896,145.0
6897,145.0
6898,145.0
6899,144.0
6900,142.0
6901,143.0
6902,145.0
6903,147.0
6904,144.0
6905,145.0
6906,145.0
6907,146.0
6908,146.0
6909,148.0
6910,148.0
6911,147.0
6912,149.0
6913,150.0
6914,147.0
6915,146.0
6916,146.0
6917,145.0
6918,145.0
6919,144.0
6920,144.0
6921,147.0
6922,147.0
6923,147.0
6924,147.0
6925,147.0
6926,145.0
6927,147.0
6928,147.0
6929,147.0
6930,150.0
6931,147.0
6932,148.0
6933,148.0
6934,149.0
6935,149.0
6936,148.0
6937,144.0
6938,145.0
6939,147.0
6940,147.0
6941,145.0
6942,143.0
6943,143.0
6944,143.0
6945,144.0
6946,143.0
6947,143.0
6948,149.0
6949,150.0
6950,148.0
6951,148.0
6952,149.0
6953,145.0
6954,142.0
6955,145.0
6956,146.0
6957,147.0
6958,148.0
6959,148.0
6960,148.0
6961,149.0
6962,147.0
6963,148.0
6964,148.0
6965,147.0
6966,146.0
6967,145.0
6968,145.0
6969,146.0
6970,144.0
6971,145.0
6972,147.0
6973,147.0
6974,145.0
6975,144.0
6976,146.0
6977,146.0
6978,148.0
6979,149.0
6980,148.0
6981,147.0
6982,144.0
6983,145.0
6984,144.0
6985,143.0
6986,145.0
6987,145.0
6988,145.0
6989,143.0
6990,144.0
6991,143.0
6992,145.0
6993,147.0
6994,145.0
6995,147.0
6996,151.0
6997,151.0
6998,149.0
6999,147.0
7000,147.0
7001,148.0
7002,147.0
7003,146.0
7004,147.0
7005,147.0
7006,146.0
7007,146.0
7008,148.0
7009,148.0
7010,148.0
7011,150.0
7012,151.0
7013,150.0
7014,149.0
7015,151.0
7016,145.0
7017,146.0
7018,147.0
7019,147.0
7020,145.0
7021,147.0
7022,149.0
7023,149.0
7024,147.0
7025,150.0
7026,150.0
7027,148.0
7028,148.0
7029,148.0
7030,146.0
7031,143.0
7032,142.0
7033,145.0
7034,147.0
7035,144.0
7036,144.0
7037,146.0
7038,148.0
7039,150.0
7040,150.0
7041,146.0
7042,150.0
7043,148.0
7044,145.0
7045,144.0
7046,145.0
7047,146.0
7048,150.0
7049,149.0
7050,149.0
7051,149.0
7052,149.0
7053,149.0
7054,150.0
7055,150.0
7056,152.0
7057,153.0
7058,154.0
7059,152.0
7060,149.0
7061,148.0
7062,149.0
7063,147.0
7064,148.0
7065,149.0
7066,146.0
7067,147.0
7068,146.0
7069,149.0
7070,147.0
7071,146.0
7072,146.0
7073,147.0
7074,147.0
7075,150.0
7076,149.0
7077,151.0
7078,149.0
7079,146.0
7080,147.0
7081,148.0
7082,146.0
7083,145.0
7084,146.0
7085,147.0
7086,145.0
7087,146.0
7088,146.0
7089,146.0
7090,144.0
7091,145.0
7092,145.0
7093,145.0
7094,147.0
7095,145.0
7096,145.0
7097,144.0
7098,142.0
7099,144.0
7100,146.0
7101,148.0
7102,149.0
7103,143.0
7104,147.0
7105,147.0
7106,146.0
7107,144.0
7108,142.0
7109,141.0
7110,139.0
7111,143.0
7112,144.0
7113,142.0
7114,142.0
7115,143.0
7116,144.0
7117,147.0
7118,147.0
7119,149.0
7120,149.0
7121,146.0
7122,148.0
7123,147.0
7124,148.0
7125,145.0
7126,145.0
7127,146.0
7128,146.0
7129,144.0
7130,142.0
7131,143.0
7132,144.0
7133,145.0
7134,147.0
7135,149.0
7136,146.0
7137,147.0
7138,149.0
7139,150.0
7140,152.0
7141,153.0
7142,156.0
7143,161.0
7144,162.0
7145,165.0
7146,165.0
7147,170.0
7148,169.0
7149,167.0
7150,173.0
7151,175.0
7152,174.0
7153,175.0
7154,177.0
7155,174.0
7156,173.0
7157,173.0
7158,173.0
7159,173.0
7160,166.0
7161,159.0
7162,152.0
7163,147.0
7164,144.0
7165,140.0
7166,138.0
7167,136.0
7168,136.0
7169,137.0
7170,137.0
7171,135.0
7172,135.0
7173,139.0
7174,138.0
7175,138.0
7176,139.0
7177,139.0
7178,139.0
7179,142.0
7180,139.0
7181,140.0
7182,140.0
7183,142.0
7184,145.0
7185,145.0
7186,143.0
7187,146.0
7188,145.0
7189,144.0
7190,143.0
7191,145.0
7192,144.0
7193,141.0
7194,141.0
7195,142.0
7196,143.0
7197,144.0
7198,148.0
7199,150.0
7200,149.0
7201,154.0
7202,153.0
7203,150.0
7204,149.0
7205,151.0
7206,149.0
7207,147.0
7208,149.0
7209,149.0
7210,149.0
7211,149.0
7212,149.0
7213,147.0
7214,147.0
7215,149.0
7216,151.0
7217,149.0
7218,148.0
7219,148.0
7220,149.0
7221,148.0
7222,147.0
7223,150.0
7224,150.0
7225,147.0
7226,145.0
7227,144.0
7228,146.0
7229,148.0
7230,150.0
7231,151.0
7232,148.0
7233,147.0
7234,150.0
7235,150.0
7236,149.0
7237,146.0
7238,145.0
7239,146.0
7240,145.0
7241,145.0
7242,144.0
7243,149.0
7244,154.0
7245,149.0
7246,146.0
7247,147.0
7248,147.0
7249,148.0
7250,150.0
7251,150.0
7252,150.0
7253,147.0
7254,148.0
7255,150.0
7256,153.0
7257,153.0
7258,151.0
7259,151.0
7260,151.0
7261,150.0
7262,153.0
7263,151.0
7264,149.0
7265,150.0
7266,150.0
7267,148.0
7268,149.0
7269,151.0
7270,151.0
7271,150.0
7272,148.0
7273,149.0
7274,149.0
7275,151.0
7276,151.0
7277,151.0
7278,151.0
7279,146.0
7280,146.0
7281,148.0
7282,148.0
7283,149.0
7284,149.0
7285,151.0
7286,154.0
7287,155.0
7288,154.0
7289,153.0
7290,154.0
7291,156.0
7292,152.0
7293,149.0
7294,151.0
7295,153.0
7296,151.0
7297,150.0
7298,153.0
7299,151.0
7300,150.0
7301,149.0
7302,149.0
7303,153.0
7304,150.0
7305,149.0
7306,153.0
7307,155.0
7308,154.0
7309,155.0
7310,154.0
7311,151.0
7312,156.0
7313,156.0
7314,155.0
7315,153.0
7316,156.0
7317,155.0
7318,155.0
7319,156.0
7320,157.0
7321,154.0
7322,153.0
7323,155.0
7324,153.0
7325,155.0
7326,155.0
7327,155.0
7328,154.0
7329,156.0
7330,158.0
7331,158.0
7332,156.0
7333,155.0
7334,157.0
7335,156.0
7336,157.0
7337,157.0
7338,156.0
7339,156.0
7340,159.0
7341,159.0
7342,158.0
7343,161.0
7344,163.0
7345,159.0
7346,159.0
7347,162.0
7348,162.0
7349,161.0
7350,158.0
7351,159.0
7352,160.0
7353,161.0
7354,160.0
7355,163.0
7356,164.0
7357,163.0
7358,161.0
7359,164.0
7360,162.0
7361,165.0
7362,168.0
7363,167.0
7364,161.0
7365,165.0
7366,167.0
7367,167.0
7368,167.0
7369,166.0
7370,164.0
7371,165.0
7372,166.0
7373,166.0
7374,164.0
7375,165.0
7376,167.0
7377,166.0
7378,166.0
7379,164.0
7380,166.0
7381,165.0
7382,162.0
7383,162.0
7384,163.0
7385,164.0
7386,163.0
7387,165.0
7388,166.0
7389,165.0
7390,165.0
7391,167.0
7392,167.0
7393,166.0
7394,163.0
7395,163.0
7396,164.0
7397,160.0
7398,159.0
7399,161.0
7400,161.0
7401,164.0
7402,157.0
7403,159.0
7404,157.0
7405,156.0
7406,154.0
7407,157.0
7408,157.0
7409,156.0
7410,152.0
7411,153.0
7412,152.0
7413,152.0
7414,151.0
7415,150.0
7416,151.0
7417,153.0
7418,152.0
7419,150.0
7420,149.0
7421,148.0
7422,147.0
7423,149.0
7424,151.0
7425,149.0
7426,148.0
7427,147.0
7428,150.0
7429,150.0
7430,150.0
7431,149.0
7432,149.0
7433,149.0
7434,147.0
7435,147.0
7436,146.0
7437,144.0
7438,145.0
7439,147.0
7440,146.0
7441,145.0
7442,146.0
7443,147.0
7444,148.0
7445,148.0
7446,147.0
7447,149.0
7448,146.0
7449,145.0
7450,146.0
7451,145.0
7452,143.0
7453,148.0
7454,150.0
7455,149.0
7456,150.0
7457,147.0
7458,146.0
7459,148.0
7460,148.0
7461,145.0
7462,146.0
7463,146.0
7464,145.0
7465,146.0
7466,147.0
7467,146.0
7468,145.0
7469,146.0
7470,144.0
7471,146.0
7472,147.0
7473,145.0
7474,142.0
7475,143.0
7476,145.0
7477,147.0
7478,144.0
7479,145.0
7480,148.0
7481,149.0
7482,144.0
7483,142.0
7484,145.0
7485,147.0
7486,147.0
7487,146.0
7488,144.0
7489,146.0
7490,145.0
7491,141.0
7492,140.0
7493,144.0
7494,146.0
7495,150.0
7496,149.0
7497,147.0
7498,146.0
7499,146.0
7500,145.0
7501,144.0
7502,143.0
7503,146.0
7504,147.0
7505,148.0
7506,145.0
7507,146.0
7508,145.0
7509,145.0
7510,144.0
7511,147.0
7512,147.0
7513,146.0
7514,146.0
7515,144.0
7516,146.0
7517,147.0
7518,145.0
7519,145.0
7520,143.0
7521,147.0
7522,146.0
7523,147.0
7524,149.0
7525,148.0
7526,149.0
7527,149.0
7528,149.0
7529,147.0
7530,147.0
7531,148.0
7532,145.0
7533,143.0
7534,144.0
7535,146.0
7536,148.0
7537,147.0
7538,145.0
7539,144.0
7540,145.0
7541,144.0
7542,146.0
7543,149.0
7544,150.0
7545,148.0
7546,146.0
7547,148.0
7548,146.0
7549,146.0
7550,147.0
7551,146.0
7552,145.0
7553,144.0
7554,146.0
7555,147.0
7556,145.0
7557,144.0
7558,144.0
7559,142.0
7560,143.0
7561,145.0
7562,144.0
7563,142.0
7564,144.0
7565,146.0
7566,146.0
7567,147.0
7568,149.0
7569,150.0
7570,150.0
7571,149.0
7572,148.0
7573,149.0
7574,149.0
7575,148.0
7576,148.0
7577,148.0
7578,144.0
7579,146.0
7580,144.0
7581,144.0
7582,146.0
7583,143.0
7584,145.0
7585,144.0
7586,144.0
7587,147.0
7588,148.0
7589,147.0
7590,148.0
7591,147.0
7592,145.0
7593,144.0
7594,146.0
7595,146.0
7596,146.0
7597,143.0
7598,143.0
7599,148.0
7600,150.0
7601,147.0
7602,147.0
7603,147.0
7604,146.0
7605,145.0
7606,146.0
7607,148.0
7608,148.0
7609,147.0
7610,146.0
7611,146.0
7612,143.0
7613,144.0
7614,144.0
7615,144.0
7616,146.0
7617,146.0
7618,146.0
7619,144.0
7620,146.0
7621,148.0
7622,146.0
7623,145.0
7624,147.0
7625,148.0
7626,145.0
7627,145.0
7628,146.0
7629,146.0
7630,147.0
7631,144.0
7632,144.0
7633,147.0
7634,150.0
7635,145.0
7636,141.0
7637,143.0
7638,149.0
7639,148.0
7640,145.0
7641,144.0
7642,142.0
7643,145.0
7644,144.0
7645,144.0
7646,146.0
7647,147.0
7648,146.0
7649,145.0
7650,144.0
7651,144.0
7652,145.0
7653,145.0
7654,147.0
7655,146.0
7656,145.0
7657,146.0
7658,147.0
7659,148.0
7660,149.0
7661,148.0
7662,144.0
7663,143.0
7664,145.0
7665,145.0
7666,144.0
7667,146.0
7668,146.0
7669,146.0
7670,146.0
7671,145.0
7672,147.0
7673,147.0
7674,147.0
7675,147.0
7676,146.0
7677,145.0
7678,146.0
7679,144.0
7680,144.0
7681,143.0
7682,145.0
7683,149.0
7684,144.0
7685,143.0
7686,144.0
7687,147.0
7688,148.0
7689,148.0
7690,146.0
7691,147.0
7692,146.0
7693,146.0
7694,145.0
7695,145.0
7696,144.0
7697,144.0
7698,143.0
7699,145.0
7700,144.0
7701,145.0
7702,146.0
7703,147.0
7704,148.0
7705,148.0
7706,147.0
7707,145.0
7708,147.0
7709,147.0
7710,146.0
7711,145.0
7712,145.0
7713,143.0
7714,143.0
7715,143.0
7716,145.0
7717,145.0
7718,145.0
7719,148.0
7720,149.0
7721,147.0
7722,146.0
7723,145.0
7724,148.0
7725,148.0
7726,148.0
7727,145.0
7728,144.0
7729,144.0
7730,144.0
7731,144.0
7732,145.0
7733,145.0
7734,145.0
7735,143.0
7736,143.0
7737,145.0
7738,146.0
7739,146.0
7740,144.0
7741,143.0
7742,141.0
7743,143.0
7744,144.0
7745,145.0
7746,146.0
7747,147.0
7748,146.0
7749,142.0
7750,142.0
7751,145.0
7752,145.0
7753,146.0
7754,145.0
7755,147.0
7756,146.0
7757,146.0
7758,146.0
7759,146.0
7760,148.0
7761,147.0
7762,145.0
7763,145.0
7764,145.0
7765,144.0
7766,141.0
7767,143.0
7768,145.0
7769,146.0
7770,145.0
7771,144.0
7772,145.0
7773,146.0
7774,145.0
7775,143.0
7776,145.0
7777,148.0
7778,149.0
7779,145.0
7780,145.0
7781,147.0
7782,146.0
7783,145.0
7784,145.0
7785,143.0
7786,145.0
7787,146.0
7788,145.0
7789,148.0
7790,145.0
7791,148.0
7792,150.0
7793,149.0
7794,145.0
7795,144.0
7796,144.0
7797,142.0
7798,141.0
7799,142.0
7800,148.0
7801,146.0
7802,142.0
7803,144.0
7804,144.0
7805,149.0
7806,147.0
7807,146.0
7808,146.0
7809,147.0
7810,147.0
7811,147.0
7812,147.0
7813,146.0
7814,143.0
7815,144.0
7816,147.0
7817,146.0
7818,147.0
7819,146.0
7820,145.0
7821,144.0
7822,145.0
7823,144.0
7824,144.0
7825,144.0
7826,147.0
7827,147.0
7828,148.0
7829,146.0
7830,145.0
7831,143.0
7832,145.0
7833,146.0
7834,145.0
7835,145.0
7836,146.0
7837,146.0
7838,145.0
7839,147.0
7840,148.0
7841,147.0
7842,146.0
7843,143.0
7844,146.0
7845,145.0
7846,145.0
7847,145.0
7848,145.0
7849,144.0
7850,144.0
7851,150.0
7852,150.0
7853,147.0
7854,146.0
7855,145.0
7856,148.0
7857,148.0
7858,148.0
7859,144.0
7860,142.0
7861,144.0
7862,144.0
7863,144.0
7864,147.0
7865,150.0
7866,146.0
7867,146.0
7868,147.0
7869,148.0
7870,148.0
7871,146.0
7872,146.0
7873,147.0
7874,146.0
7875,148.0
7876,149.0
7877,150.0
7878,150.0
7879,152.0
7880,149.0
7881,148.0
7882,152.0
7883,148.0
7884,147.0
7885,147.0
7886,145.0
7887,150.0
7888,152.0
7889,149.0
7890,147.0
7891,146.0
7892,145.0
7893,145.0
7894,146.0
7895,146.0
7896,147.0
7897,147.0
7898,147.0
7899,145.0
7900,146.0
7901,147.0
7902,148.0
7903,146.0
7904,145.0
7905,145.0
7906,142.0
7907,146.0
7908,146.0
7909,147.0
7910,147.0
7911,147.0
7912,147.0
7913,146.0
7914,147.0
7915,148.0
7916,145.0
7917,144.0
7918,143.0
7919,143.0
7920,146.0
7921,145.0
7922,146.0
7923,145.0
7924,146.0
7925,148.0
7926,144.0
7927,144.0
7928,145.0
7929,148.0
7930,147.0
7931,145.0
7932,145.0
7933,145.0
7934,143.0
7935,144.0
7936,145.0
7937,145.0
7938,145.0
7939,145.0
7940,147.0
7941,146.0
7942,145.0
7943,143.0
7944,141.0
7945,143.0
7946,144.0
7947,145.0
7948,145.0
7949,143.0
7950,147.0
7951,147.0
7952,146.0
7953,145.0
7954,146.0
7955,146.0
7956,145.0
7957,145.0
7958,147.0
7959,145.0
7960,145.0
7961,145.0
7962,142.0
7963,143.0
7964,142.0
7965,139.0
7966,142.0
7967,143.0
7968,140.0
7969,139.0
7970,139.0
7971,141.0
7972,145.0
7973,146.0
7974,149.0
7975,151.0
7976,150.0
7977,154.0
7978,157.0
7979,161.0
7980,163.0
7981,165.0
7982,164.0
7983,166.0
7984,167.0
7985,167.0
7986,166.0
7987,166.0
7988,168.0
7989,170.0
7990,174.0
7991,174.0
7992,173.0
7993,170.0
7994,168.0
7995,172.0
7996,170.0
7997,162.0
7998,157.0
7999,154.0
8000,150.0
8001,145.0
8002,140.0
8003,141.0
8004,140.0
8005,139.0
8006,138.0
8007,139.0
8008,140.0
8009,139.0
8010,139.0
8011,143.0
8012,143.0
8013,143.0
8014,143.0
8015,142.0
8016,142.0
8017,143.0
8018,142.0
8019,142.0
8020,143.0
8021,143.0
8022,142.0
8023,141.0
8024,142.0
8025,141.0
8026,143.0
8027,144.0
8028,147.0
8029,150.0
8030,150.0
8031,149.0
8032,148.0
8033,149.0
8034,147.0
8035,146.0
8036,145.0
8037,146.0
8038,146.0
8039,147.0
8040,146.0
8041,146.0
8042,145.0
8043,147.0
8044,148.0
8045,151.0
8046,147.0
8047,147.0
8048,148.0
8049,147.0
8050,148.0
8051,147.0
8052,147.0
8053,146.0
8054,144.0
8055,150.0
8056,147.0
8057,145.0
8058,143.0
8059,142.0
8060,146.0
8061,147.0
8062,147.0
8063,149.0
8064,150.0
8065,146.0
8066,144.0
8067,145.0
8068,147.0
8069,148.0
8070,150.0
8071,151.0
8072,152.0
8073,151.0
8074,147.0
8075,149.0
8076,150.0
8077,148.0
8078,146.0
8079,147.0
8080,150.0
8081,150.0
8082,148.0
8083,151.0
8084,148.0
8085,146.0
8086,146.0
8087,147.0
8088,149.0
8089,149.0
8090,148.0
8091,148.0
8092,149.0
8093,148.0
8094,147.0
8095,151.0
8096,150.0
8097,152.0
8098,150.0
8099,147.0
8100,146.0
8101,147.0
8102,149.0
8103,150.0
8104,149.0
8105,148.0
8106,147.0
8107,147.0
8108,148.0
8109,147.0
8110,147.0
8111,148.0
8112,147.0
8113,148.0
8114,148.0
8115,151.0
8116,149.0
8117,147.0
8118,148.0
8119,150.0
8120,150.0
8121,148.0
8122,150.0
8123,152.0
8124,153.0
8125,150.0
8126,151.0
8127,150.0
8128,150.0
8129,152.0
8130,152.0
8131,152.0
8132,152.0
8133,153.0
8134,154.0
8135,152.0
8136,150.0
8137,151.0
8138,150.0
8139,150.0
8140,150.0
8141,152.0
8142,151.0
8143,151.0
8144,152.0
8145,155.0
8146,153.0
8147,155.0
8148,155.0
8149,155.0
8150,155.0
8151,152.0
8152,151.0
8153,151.0
8154,153.0
8155,153.0
8156,152.0
8157,154.0
8158,154.0
8159,154.0
8160,151.0
8161,151.0
8162,150.0
8163,154.0
8164,154.0
8165,155.0
8166,151.0
8167,154.0
8168,154.0
8169,154.0
8170,156.0
8171,155.0
8172,157.0
8173,157.0
8174,156.0
8175,158.0
8176,159.0
8177,157.0
8178,157.0
8179,155.0
8180,157.0
8181,156.0
8182,158.0
8183,158.0
8184,155.0
8185,157.0
8186,158.0
8187,158.0
8188,158.0
8189,158.0
8190,160.0
8191,161.0
8192,164.0
8193,167.0
8194,164.0
8195,164.0
8196,161.0
8197,160.0
8198,164.0
8199,166.0
8200,165.0
8201,164.0
8202,164.0
8203,161.0
8204,162.0
8205,160.0
8206,161.0
8207,163.0
8208,162.0
8209,161.0
8210,161.0
8211,165.0
8212,167.0
8213,167.0
8214,168.0
8215,165.0
8216,165.0
8217,163.0
8218,161.0
8219,161.0
8220,161.0
8221,161.0
8222,160.0
8223,161.0
8224,163.0
8225,162.0
8226,162.0
8227,161.0
8228,162.0
8229,162.0
8230,161.0
8231,158.0
8232,159.0
8233,157.0
8234,157.0
8235,156.0
8236,156.0
8237,156.0
8238,155.0
8239,153.0
8240,155.0
8241,154.0
8242,155.0
8243,156.0
8244,155.0
8245,157.0
8246,153.0
8247,149.0
8248,154.0
8249,154.0
8250,155.0
8251,149.0
8252,148.0
8253,152.0
8254,151.0
8255,149.0
8256,147.0
8257,149.0
8258,149.0
8259,146.0
8260,147.0
8261,149.0
8262,148.0
8263,147.0
8264,148.0
8265,149.0
8266,147.0
8267,147.0
8268,146.0
8269,146.0
8270,147.0
8271,147.0
8272,146.0
8273,146.0
8274,147.0
8275,148.0
8276,149.0
8277,150.0
8278,151.0
8279,147.0
8280,148.0
8281,150.0
8282,148.0
8283,145.0
8284,145.0
8285,147.0
8286,147.0
8287,144.0
8288,142.0
8289,144.0
8290,141.0
8291,139.0
8292,140.0
8293,144.0
8294,142.0
8295,144.0
8296,145.0
8297,149.0
8298,149.0
8299,149.0
8300,149.0
8301,147.0
8302,145.0
8303,144.0
8304,142.0
8305,146.0
8306,147.0
8307,146.0
8308,144.0
8309,144.0
8310,144.0
8311,142.0
8312,141.0
8313,142.0
8314,143.0
8315,143.0
8316,143.0
8317,145.0
8318,144.0
8319,150.0
8320,147.0
8321,149.0
8322,145.0
8323,144.0
8324,144.0
8325,145.0
8326,145.0
8327,147.0
8328,147.0
8329,146.0
8330,146.0
8331,147.0
8332,145.0
8333,144.0
8334,145.0
8335,145.0
8336,147.0
8337,147.0
8338,147.0
8339,146.0
8340,144.0
8341,143.0
8342,144.0
8343,145.0
8344,145.0
8345,144.0
8346,144.0
8347,142.0
8348,143.0
8349,144.0
8350,144.0
8351,147.0
8352,148.0
8353,149.0
8354,147.0
8355,145.0
8356,144.0
8357,147.0
8358,145.0
8359,146.0
8360,144.0
8361,143.0
8362,145.0
8363,147.0
8364,143.0
8365,142.0
8366,143.0
8367,142.0
8368,142.0
8369,141.0
8370,139.0
8371,142.0
8372,142.0
8373,144.0
8374,147.0
8375,148.0
8376,147.0
8377,147.0
8378,144.0
8379,142.0
8380,142.0
8381,141.0
8382,140.0
8383,142.0
8384,141.0
8385,141.0
8386,145.0
8387,145.0
8388,145.0
8389,146.0
8390,145.0
8391,150.0
8392,148.0
8393,147.0
8394,146.0
8395,144.0
8396,144.0
8397,145.0
8398,144.0
8399,144.0
8400,143.0
8401,142.0
8402,144.0
8403,145.0
8404,146.0
8405,146.0
8406,144.0
8407,144.0
8408,147.0
8409,147.0
8410,145.0
8411,145.0
8412,147.0
8413,145.0
8414,144.0
8415,145.0
8416,144.0
8417,146.0
8418,144.0
8419,144.0
8420,144.0
8421,145.0
8422,144.0
8423,142.0
8424,142.0
8425,142.0
8426,141.0
8427,145.0
8428,145.0
8429,143.0
8430,145.0
8431,144.0
8432,142.0
8433,143.0
8434,146.0
8435,146.0
8436,145.0
8437,144.0
8438,143.0
8439,141.0
8440,139.0
8441,141.0
8442,146.0
8443,146.0
8444,145.0
8445,145.0
8446,147.0
8447,147.0
8448,148.0
8449,148.0
8450,147.0
8451,147.0
8452,145.0
8453,144.0
8454,146.0
8455,146.0
8456,146.0
8457,144.0
8458,142.0
8459,142.0
8460,142.0
8461,142.0
8462,141.0
8463,141.0
8464,142.0
8465,142.0
8466,142.0
8467,144.0
8468,144.0
8469,145.0
8470,145.0
8471,145.0
8472,147.0
8473,146.0
8474,147.0
8475,148.0
8476,147.0
8477,147.0
8478,145.0
8479,145.0
8480,145.0
8481,144.0
8482,144.0
8483,144.0
8484,141.0
8485,140.0
8486,141.0
8487,142.0
8488,145.0
8489,145.0
8490,144.0
8491,145.0
8492,145.0
8493,146.0
8494,143.0
8495,143.0
8496,144.0
8497,149.0
8498,144.0
8499,145.0
8500,147.0
8501,145.0
8502,146.0
8503,143.0
8504,143.0
8505,143.0
8506,146.0
8507,148.0
8508,148.0
8509,146.0
8510,145.0
8511,142.0
8512,142.0
8513,142.0
8514,144.0
8515,145.0
8516,144.0
8517,144.0
8518,145.0
8519,146.0
8520,145.0
8521,147.0
8522,145.0
8523,147.0
8524,147.0
8525,145.0
8526,143.0
8527,145.0
8528,146.0
8529,144.0
8530,142.0
8531,143.0
8532,144.0
8533,144.0
8534,145.0
8535,143.0
8536,142.0
8537,146.0
8538,140.0
8539,144.0
8540,145.0
8541,145.0
8542,143.0
8543,145.0
8544,146.0
8545,144.0
8546,142.0
8547,142.0
8548,147.0
8549,146.0
8550,146.0
8551,143.0
8552,142.0
8553,143.0
8554,144.0
8555,148.0
8556,144.0
8557,146.0
8558,146.0
8559,145.0
8560,144.0
8561,143.0
8562,142.0
8563,143.0
8564,145.0
8565,146.0
8566,147.0
8567,145.0
8568,144.0
8569,142.0
8570,143.0
8571,143.0
8572,144.0
8573,146.0
8574,144.0
8575,146.0
8576,146.0
8577,145.0
8578,144.0
8579,144.0
8580,145.0
8581,146.0
8582,146.0
8583,145.0
8584,145.0
8585,144.0
8586,144.0
8587,144.0
8588,143.0
8589,144.0
8590,145.0
8591,146.0
8592,146.0
8593,145.0
8594,144.0
8595,143.0
8596,140.0
8597,142.0
8598,146.0
8599,144.0
8600,144.0
8601,143.0
8602,146.0
8603,148.0
8604,147.0
8605,145.0
8606,143.0
8607,145.0
8608,147.0
8609,143.0
8610,143.0
8611,145.0
8612,146.0
8613,146.0
8614,146.0
8615,143.0
8616,144.0
8617,145.0
8618,144.0
8619,145.0
8620,143.0
8621,142.0
8622,141.0
8623,144.0
8624,144.0
8625,146.0
8626,145.0
8627,143.0
8628,144.0
8629,144.0
8630,143.0
8631,142.0
8632,144.0
8633,143.0
8634,144.0
8635,143.0
8636,139.0
8637,143.0
8638,145.0
8639,145.0
8640,144.0
8641,145.0
8642,146.0
8643,147.0
8644,150.0
8645,147.0
8646,146.0
8647,146.0
8648,144.0
8649,144.0
8650,145.0
8651,144.0
8652,143.0
8653,147.0
8654,152.0
8655,147.0
8656,146.0
8657,144.0
8658,143.0
8659,143.0
8660,143.0
8661,143.0
8662,145.0
8663,146.0
8664,147.0
8665,146.0
8666,145.0
8667,145.0
8668,143.0
8669,144.0
8670,144.0
8671,143.0
8672,144.0
8673,145.0
8674,140.0
8675,138.0
8676,140.0
8677,140.0
8678,143.0
8679,143.0
8680,144.0
8681,145.0
8682,145.0
8683,148.0
8684,147.0
8685,147.0
8686,145.0
8687,144.0
8688,142.0
8689,143.0
8690,142.0
8691,144.0
8692,147.0
8693,146.0
8694,149.0
8695,144.0
8696,143.0
8697,144.0
8698,144.0
8699,146.0
8700,145.0
8701,148.0
8702,148.0
8703,148.0
8704,150.0
8705,147.0
8706,147.0
8707,149.0
8708,147.0
8709,144.0
8710,142.0
8711,142.0
8712,147.0
8713,143.0
8714,143.0
8715,145.0
8716,144.0
8717,146.0
8718,148.0
8719,146.0
8720,144.0
8721,147.0
8722,148.0
8723,146.0
8724,145.0
8725,145.0
8726,143.0
8727,144.0
8728,144.0
8729,143.0
8730,142.0
8731,143.0
8732,142.0
8733,143.0
8734,145.0
8735,146.0
8736,144.0
8737,145.0
8738,146.0
8739,143.0
8740,144.0
8741,145.0
8742,143.0
8743,146.0
8744,144.0
8745,144.0
8746,146.0
8747,143.0
8748,141.0
8749,143.0
8750,144.0
8751,145.0
8752,145.0
8753,146.0
8754,148.0
8755,149.0
8756,147.0
8757,147.0
8758,145.0
8759,146.0
8760,144.0
8761,144.0
8762,147.0
8763,147.0
8764,147.0
8765,141.0
8766,143.0
8767,145.0
8768,144.0
8769,145.0
8770,146.0
8771,147.0
8772,146.0
8773,146.0
8774,146.0
8775,144.0
8776,142.0
8777,146.0
8778,143.0
8779,144.0
8780,147.0
8781,146.0
8782,147.0
8783,148.0
8784,146.0
8785,144.0
8786,143.0
8787,142.0
8788,141.0
8789,142.0
8790,143.0
8791,143.0
8792,145.0
8793,146.0
8794,149.0
8795,150.0
8796,150.0
8797,149.0
8798,146.0
8799,147.0
8800,147.0
8801,145.0
8802,146.0
8803,145.0
8804,144.0
8805,145.0
8806,147.0
8807,146.0
8808,144.0
8809,143.0
8810,144.0
8811,144.0
8812,146.0
8813,147.0
8814,146.0
8815,144.0
8816,142.0
8817,147.0
8818,146.0
8819,145.0
8820,142.0
8821,141.0
8822,142.0
8823,146.0
8824,148.0
8825,147.0
8826,146.0
8827,148.0
8828,144.0
8829,144.0
8830,146.0
8831,149.0
8832,149.0
8833,148.0
8834,147.0
8835,145.0
8836,145.0
8837,144.0
8838,145.0
8839,145.0
8840,145.0
8841,146.0
8842,147.0
8843,145.0
8844,145.0
8845,147.0
8846,147.0
8847,146.0
8848,148.0
8849,148.0
8850,147.0
8851,148.0
8852,148.0
8853,146.0
8854,147.0
8855,145.0
8856,144.0
8857,146.0
8858,146.0
8859,147.0
8860,148.0
8861,149.0
8862,147.0
8863,145.0
8864,146.0
8865,148.0
8866,147.0
8867,144.0
8868,146.0
8869,143.0
8870,140.0
8871,141.0
8872,142.0
8873,146.0
8874,147.0
8875,145.0
8876,149.0
8877,152.0
8878,153.0
8879,155.0
8880,152.0
8881,149.0
8882,148.0
8883,148.0
8884,149.0
8885,149.0
8886,150.0
8887,149.0
8888,148.0
8889,149.0
8890,149.0
8891,145.0
8892,147.0
8893,148.0
8894,148.0
8895,149.0
8896,148.0
8897,149.0
8898,148.0
8899,149.0
8900,148.0
8901,147.0
8902,148.0
8903,151.0
8904,150.0
8905,148.0
8906,148.0
8907,148.0
8908,148.0
8909,145.0
8910,145.0
8911,148.0
8912,148.0
8913,143.0
8914,144.0
8915,144.0
8916,143.0
8917,142.0
8918,144.0
8919,145.0
8920,147.0
8921,146.0
8922,146.0
8923,146.0
8924,146.0
8925,145.0
8926,145.0
8927,143.0
8928,144.0
8929,143.0
8930,142.0
8931,141.0
8932,143.0
8933,151.0
8934,150.0
8935,144.0
8936,144.0
8937,146.0
8938,147.0
8939,145.0
8940,144.0
8941,145.0
8942,148.0
8943,147.0
8944,143.0
8945,143.0
8946,143.0
8947,144.0
8948,147.0
8949,147.0
8950,146.0
8951,145.0
8952,145.0
8953,146.0
8954,146.0
8955,146.0
8956,147.0
8957,145.0
8958,144.0
8959,144.0
8960,142.0
8961,141.0
8962,146.0
8963,147.0
8964,146.0
8965,147.0
8966,145.0
8967,142.0
8968,143.0
8969,144.0
8970,143.0
8971,142.0
8972,147.0
8973,146.0
8974,147.0
8975,148.0
8976,149.0
8977,153.0
8978,154.0
8979,155.0
8980,157.0
8981,160.0
8982,162.0
8983,161.0
8984,160.0
8985,160.0
8986,163.0
8987,165.0
8988,167.0
8989,170.0
8990,177.0
8991,178.0
8992,175.0
8993,176.0
8994,176.0
8995,173.0
8996,173.0
8997,174.0
8998,161.0
8999,159.0
9000,154.0
9001,151.0
9002,146.0
9003,138.0
9004,137.0
9005,137.0
9006,137.0
9007,138.0
9008,138.0
9009,138.0
9010,139.0
9011,140.0
9012,139.0
9013,139.0
9014,140.0
9015,142.0
9016,143.0
9017,143.0
9018,142.0
9019,145.0
9020,145.0
9021,148.0
9022,147.0
9023,145.0
9024,147.0
9025,148.0
9026,145.0
9027,147.0
9028,147.0
9029,147.0
9030,151.0
9031,148.0
9032,149.0
9033,148.0
9034,147.0
9035,148.0
9036,146.0
9037,147.0
9038,147.0
9039,145.0
9040,145.0
9041,148.0
9042,150.0
9043,150.0
9044,148.0
9045,149.0
9046,148.0
9047,148.0
9048,146.0
9049,146.0
9050,146.0
9051,146.0
9052,145.0
9053,148.0
9054,150.0
9055,149.0
9056,147.0
9057,147.0
9058,147.0
9059,148.0
9060,145.0
9061,145.0
9062,145.0
9063,143.0
9064,146.0
9065,143.0
9066,148.0
9067,146.0
9068,146.0
9069,147.0
9070,147.0
9071,148.0
9072,149.0
9073,148.0
9074,150.0
9075,153.0
9076,150.0
9077,148.0
9078,147.0
9079,150.0
9080,151.0
9081,149.0
9082,149.0
9083,147.0
9084,147.0
9085,151.0
9086,148.0
9087,148.0
9088,147.0
9089,152.0
9090,150.0
9091,151.0
9092,149.0
9093,147.0
9094,149.0
9095,149.0
9096,149.0
9097,148.0
9098,149.0
9099,149.0
9100,153.0
9101,153.0
9102,149.0
9103,144.0
9104,146.0
9105,150.0
9106,150.0
9107,149.0
9108,153.0
9109,154.0
9110,152.0
9111,150.0
9112,151.0
9113,151.0
9114,151.0
9115,151.0
9116,147.0
9117,143.0
9118,147.0
9119,148.0
9120,148.0
9121,148.0
9122,149.0
9123,148.0
9124,149.0
9125,152.0
9126,153.0
9127,153.0
9128,153.0
9129,150.0
9130,150.0
9131,151.0
9132,149.0
9133,150.0
9134,153.0
9135,151.0
9136,150.0
9137,150.0
9138,151.0
9139,154.0
9140,154.0
9141,153.0
9142,153.0
9143,151.0
9144,152.0
9145,153.0
9146,151.0
9147,151.0
9148,152.0
9149,149.0
9150,151.0
9151,150.0
9152,151.0
9153,153.0
9154,156.0
9155,156.0
9156,152.0
9157,152.0
9158,153.0
9159,152.0
9160,153.0
9161,155.0
9162,157.0
9163,154.0
9164,156.0
9165,156.0
9166,155.0
9167,156.0
9168,159.0
9169,155.0
9170,155.0
9171,156.0
9172,157.0
9173,159.0
9174,158.0
9175,156.0
9176,158.0
9177,156.0
9178,158.0
9179,160.0
9180,158.0
9181,157.0
9182,156.0
9183,156.0
9184,161.0
9185,161.0
9186,157.0
9187,157.0
9188,157.0
9189,157.0
9190,159.0
9191,161.0
9192,161.0
9193,162.0
9194,162.0
9195,160.0
9196,161.0
9197,160.0
9198,159.0
9199,162.0
9200,164.0
9201,164.0
9202,163.0
9203,164.0
9204,165.0
9205,166.0
9206,166.0
9207,164.0
9208,162.0
9209,162.0
9210,163.0
9211,161.0
9212,160.0
9213,165.0
9214,164.0
9215,165.0
9216,165.0
9217,162.0
9218,163.0
9219,164.0
9220,167.0
9221,165.0
9222,167.0
9223,168.0
9224,167.0
9225,164.0
9226,166.0
9227,164.0
9228,162.0
9229,165.0
9230,161.0
9231,159.0
9232,160.0
9233,160.0
9234,159.0
9235,161.0
9236,161.0
9237,161.0
9238,160.0
9239,162.0
9240,163.0
9241,161.0
9242,157.0
9243,159.0
9244,158.0
9245,157.0
9246,155.0
9247,154.0
9248,153.0
9249,156.0
9250,155.0
9251,154.0
9252,154.0
9253,153.0
9254,150.0
9255,152.0
9256,154.0
9257,154.0
9258,153.0
9259,147.0
9260,147.0
9261,148.0
9262,148.0
9263,150.0
9264,151.0
9265,151.0
9266,146.0
9267,149.0
9268,151.0
9269,150.0
9270,148.0
9271,148.0
9272,145.0
9273,147.0
9274,146.0
9275,149.0
9276,149.0
9277,150.0
9278,150.0
9279,149.0
9280,151.0
9281,148.0
9282,149.0
9283,145.0
9284,144.0
9285,146.0
9286,147.0
9287,151.0
9288,149.0
9289,151.0
9290,149.0
9291,146.0
9292,148.0
9293,150.0
9294,149.0
9295,150.0
9296,149.0
9297,148.0
9298,148.0
9299,146.0
9300,145.0
9301,145.0
9302,144.0
9303,146.0
9304,147.0
9305,146.0
9306,148.0
9307,147.0
9308,146.0
9309,147.0
9310,149.0
9311,150.0
9312,149.0
9313,149.0
9314,151.0
9315,151.0
9316,149.0
9317,149.0
9318,148.0
9319,145.0
9320,143.0
9321,145.0
9322,145.0
9323,143.0
9324,144.0
9325,144.0
9326,146.0
9327,148.0
9328,147.0
9329,148.0
9330,147.0
9331,150.0
9332,150.0
9333,145.0
9334,146.0
9335,148.0
9336,148.0
9337,149.0
9338,149.0
9339,147.0
9340,146.0
9341,148.0
9342,148.0
9343,147.0
9344,145.0
9345,146.0
9346,147.0
9347,146.0
9348,146.0
9349,149.0
9350,148.0
9351,143.0
9352,143.0
9353,144.0
9354,142.0
9355,143.0
9356,149.0
9357,148.0
9358,147.0
9359,147.0
9360,145.0
9361,148.0
9362,150.0
9363,150.0
9364,148.0
9365,146.0
9366,145.0
9367,145.0
9368,144.0
9369,145.0
9370,146.0
9371,148.0
9372,148.0
9373,147.0
9374,147.0
9375,149.0
9376,149.0
9377,149.0
9378,144.0
9379,146.0
9380,144.0
9381,144.0
9382,146.0
9383,146.0
9384,143.0
9385,147.0
9386,148.0
9387,149.0
9388,149.0
9389,147.0
9390,147.0
9391,147.0
9392,148.0
9393,146.0
9394,148.0
9395,149.0
9396,143.0
9397,143.0
9398,146.0
9399,145.0
9400,148.0
9401,148.0
9402,151.0
9403,150.0
9404,146.0
9405,148.0
9406,146.0
9407,146.0
9408,146.0
9409,147.0
9410,147.0
9411,147.0
9412,145.0
9413,143.0
9414,146.0
9415,147.0
9416,147.0
9417,147.0
9418,145.0
9419,146.0
9420,144.0
9421,146.0
9422,148.0
9423,148.0
9424,152.0
9425,149.0
9426,148.0
9427,149.0
9428,149.0
9429,148.0
9430,148.0
9431,148.0
9432,146.0
9433,146.0
9434,148.0
9435,146.0
9436,148.0
9437,147.0
9438,144.0
9439,144.0
9440,148.0
9441,146.0
9442,143.0
9443,141.0
9444,145.0
9445,144.0
9446,142.0
9447,145.0
9448,148.0
9449,150.0
9450,147.0
9451,149.0
9452,150.0
9453,151.0
9454,149.0
9455,147.0
9456,143.0
9457,146.0
9458,147.0
9459,144.0
9460,142.0
9461,144.0
9462,147.0
9463,148.0
9464,144.0
9465,145.0
9466,146.0
9467,148.0
9468,147.0
9469,147.0
9470,147.0
9471,146.0
9472,146.0
9473,148.0
9474,148.0
9475,149.0
9476,148.0
9477,148.0
9478,149.0
9479,147.0
9480,148.0
9481,147.0
9482,146.0
9483,147.0
9484,149.0
9485,149.0
9486,148.0
9487,143.0
9488,142.0
9489,147.0
9490,148.0
9491,145.0
9492,147.0
9493,151.0
9494,149.0
9495,146.0
9496,147.0
9497,147.0
9498,149.0
9499,150.0
9500,147.0
9501,149.0
9502,148.0
9503,145.0
9504,146.0
9505,149.0
9506,149.0
9507,146.0
9508,144.0
9509,145.0
9510,147.0
9511,148.0
9512,148.0
9513,144.0
9514,144.0
9515,145.0
9516,144.0
9517,144.0
9518,146.0
9519,148.0
9520,147.0
9521,146.0
9522,146.0
9523,146.0
9524,147.0
9525,148.0
9526,145.0
9527,145.0
9528,148.0
9529,151.0
9530,149.0
9531,149.0
9532,146.0
9533,145.0
9534,146.0
9535,147.0
9536,146.0
9537,148.0
9538,149.0
9539,149.0
9540,147.0
9541,146.0
9542,147.0
9543,151.0
9544,147.0
9545,146.0
9546,147.0
9547,144.0
9548,144.0
9549,145.0
9550,146.0
9551,147.0
9552,148.0
9553,149.0
9554,151.0
9555,146.0
9556,146.0
9557,147.0
9558,146.0
9559,147.0
9560,146.0
9561,145.0
9562,147.0
9563,148.0
9564,149.0
9565,149.0
9566,147.0
9567,146.0
9568,147.0
9569,147.0
9570,147.0
9571,147.0
9572,147.0
9573,146.0
9574,145.0
9575,148.0
9576,148.0
9577,145.0
9578,145.0
9579,146.0
9580,146.0
9581,147.0
9582,148.0
9583,149.0
9584,148.0
9585,148.0
9586,143.0
9587,141.0
9588,147.0
9589,149.0
9590,149.0
9591,148.0
9592,146.0
9593,146.0
9594,144.0
9595,144.0
9596,144.0
9597,144.0
9598,145.0
9599,145.0
9600,145.0
9601,146.0
9602,146.0
9603,147.0
9604,147.0
9605,147.0
9606,146.0
9607,147.0
9608,146.0
9609,144.0
9610,145.0
9611,148.0
9612,149.0
9613,150.0
9614,152.0
9615,152.0
9616,150.0
9617,148.0
9618,145.0
9619,148.0
9620,147.0
9621,148.0
9622,147.0
9623,144.0
9624,145.0
9625,149.0
9626,150.0
9627,149.0
9628,146.0
9629,148.0
9630,146.0
9631,146.0
9632,146.0
9633,149.0
9634,150.0
9635,148.0
9636,149.0
9637,149.0
9638,145.0
9639,144.0
9640,144.0
9641,147.0
9642,148.0
9643,147.0
9644,145.0
9645,145.0
9646,144.0
9647,146.0
9648,146.0
9649,145.0
9650,144.0
9651,144.0
9652,146.0
9653,147.0
9654,146.0
9655,146.0
9656,148.0
9657,149.0
9658,149.0
9659,148.0
9660,146.0
9661,146.0
9662,146.0
9663,144.0
9664,141.0
9665,141.0
9666,142.0
9667,140.0
9668,143.0
9669,149.0
9670,152.0
9671,149.0
9672,152.0
9673,149.0
9674,148.0
9675,147.0
9676,144.0
9677,147.0
9678,149.0
9679,148.0
9680,148.0
9681,149.0
9682,148.0
9683,149.0
9684,148.0
9685,148.0
9686,148.0
9687,148.0
9688,146.0
9689,146.0
9690,148.0
9691,147.0
9692,146.0
9693,147.0
9694,145.0
9695,144.0
9696,146.0
9697,145.0
9698,147.0
9699,149.0
9700,148.0
9701,147.0
9702,147.0
9703,145.0
9704,146.0
9705,147.0
9706,147.0
9707,146.0
9708,145.0
9709,146.0
9710,146.0
9711,145.0
9712,146.0
9713,147.0
9714,146.0
9715,146.0
9716,145.0
9717,144.0
9718,144.0
9719,146.0
9720,152.0
9721,148.0
9722,146.0
9723,145.0
9724,145.0
9725,148.0
9726,151.0
9727,154.0
9728,149.0
9729,147.0
9730,148.0
9731,148.0
9732,146.0
9733,144.0
9734,144.0
9735,144.0
9736,144.0
9737,144.0
9738,144.0
9739,147.0
9740,149.0
9741,149.0
9742,150.0
9743,148.0
9744,150.0
9745,150.0
9746,150.0
9747,148.0
9748,145.0
9749,146.0
9750,146.0
9751,148.0
9752,146.0
9753,147.0
9754,145.0
9755,144.0
9756,144.0
9757,145.0
9758,149.0
9759,147.0
9760,143.0
9761,146.0
9762,148.0
9763,147.0
9764,147.0
9765,147.0
9766,148.0
9767,145.0
9768,144.0
9769,145.0
9770,147.0
9771,147.0
9772,144.0
9773,145.0
9774,147.0
9775,147.0
9776,147.0
9777,147.0
9778,148.0
9779,147.0
9780,146.0
9781,149.0
9782,149.0
9783,149.0
9784,150.0
9785,150.0
9786,147.0
9787,145.0
9788,148.0
9789,146.0
9790,145.0
9791,143.0
9792,145.0
9793,147.0
9794,150.0
9795,149.0
9796,147.0
9797,148.0
9798,147.0
9799,145.0
9800,145.0
9801,146.0
9802,146.0
9803,145.0
9804,146.0
9805,146.0
9806,146.0
9807,147.0
9808,145.0
9809,147.0
9810,147.0
9811,146.0
9812,149.0
9813,148.0
9814,147.0
9815,147.0
9816,148.0
9817,146.0
9818,144.0
9819,147.0
9820,146.0
9821,146.0
9822,149.0
9823,150.0
9824,147.0
9825,147.0
9826,146.0
9827,148.0
9828,144.0
9829,143.0
9830,143.0
9831,143.0
9832,145.0
9833,145.0
9834,144.0
9835,145.0
9836,146.0
9837,147.0
9838,145.0
9839,144.0
9840,145.0
9841,144.0
9842,143.0
9843,145.0
9844,149.0
9845,153.0
9846,155.0
9847,150.0
9848,149.0
9849,147.0
9850,147.0
9851,148.0
9852,148.0
9853,148.0
9854,149.0
9855,149.0
9856,148.0
9857,148.0
9858,149.0
9859,150.0
9860,148.0
9861,148.0
9862,146.0
9863,145.0
9864,146.0
9865,148.0
9866,148.0
9867,149.0
9868,149.0
9869,150.0
9870,149.0
9871,150.0
9872,151.0
9873,148.0
9874,147.0
9875,146.0
9876,148.0
9877,149.0
9878,148.0
9879,150.0
9880,151.0
9881,151.0
9882,152.0
9883,151.0
9884,149.0
9885,146.0
9886,148.0
9887,146.0
9888,147.0
9889,145.0
9890,146.0
9891,147.0
9892,148.0
9893,148.0
9894,151.0
9895,153.0
9896,154.0
9897,153.0
9898,152.0
9899,150.0
9900,154.0
9901,150.0
9902,148.0
9903,147.0
9904,148.0
9905,148.0
9906,147.0
9907,146.0
9908,144.0
9909,142.0
9910,146.0
9911,144.0
9912,143.0
9913,146.0
9914,147.0
9915,144.0
9916,146.0
9917,148.0
9918,149.0
9919,148.0
9920,147.0
9921,145.0
9922,144.0
9923,145.0
9924,146.0
9925,145.0
9926,144.0
9927,141.0
9928,141.0
9929,142.0
9930,143.0
9931,145.0
9932,147.0
9933,149.0
9934,150.0
9935,150.0
9936,149.0
9937,147.0
9938,149.0
9939,150.0
9940,148.0
9941,146.0
9942,147.0
9943,147.0
9944,146.0
9945,146.0
9946,146.0
9947,148.0
9948,147.0
9949,141.0
9950,142.0
9951,142.0
9952,142.0
9953,143.0
9954,143.0
9955,144.0
9956,144.0
9957,145.0
9958,148.0
9959,148.0
9960,147.0
9961,150.0
9962,148.0
9963,147.0
9964,145.0
9965,144.0
9966,141.0
9967,139.0
9968,139.0
9969,139.0
9970,140.0
9971,139.0
9972,143.0
9973,151.0
9974,152.0
9975,153.0
9976,154.0
9977,156.0
9978,155.0
9979,158.0
9980,163.0
9981,164.0
9982,165.0
9983,169.0
9984,168.0
9985,169.0
9986,171.0
9987,174.0
9988,173.0
9989,177.0
9990,178.0
9991,177.0
9992,177.0
9993,175.0
9994,174.0
9995,174.0
9996,168.0
9997,162.0
9998,154.0
9999,149.0
10000,148.0
10001,143.0
10002,139.0
10003,139.0
10004,138.0
10005,140.0
10006,140.0
10007,141.0
10008,142.0
10009,143.0
10010,144.0
10011,144.0
10012,143.0
10013,144.0
10014,144.0
10015,144.0
10016,143.0
10017,143.0
10018,144.0
10019,145.0
10020,145.0
10021,147.0
10022,146.0
10023,149.0
10024,147.0
10025,146.0
10026,147.0
10027,147.0
10028,148.0
10029,146.0
10030,147.0
10031,145.0
10032,142.0
10033,145.0
10034,144.0
10035,143.0
10036,143.0
10037,145.0
10038,146.0
10039,147.0
10040,149.0
10041,149.0
10042,149.0
10043,153.0
10044,152.0
10045,151.0
10046,149.0
10047,148.0
10048,150.0
10049,146.0
10050,147.0
10051,146.0
10052,146.0
10053,150.0
10054,149.0
10055,146.0
10056,145.0
10057,147.0
10058,144.0
10059,147.0
10060,148.0
10061,147.0
10062,147.0
10063,147.0
10064,146.0
10065,147.0
10066,148.0
10067,150.0
10068,151.0
10069,145.0
10070,146.0
10071,147.0
10072,147.0
10073,147.0
10074,148.0
10075,148.0
10076,148.0
10077,148.0
10078,147.0
10079,146.0
10080,148.0
10081,148.0
10082,147.0
10083,149.0
10084,151.0
10085,150.0
10086,148.0
10087,146.0
10088,148.0
10089,148.0
10090,147.0
10091,150.0
10092,148.0
10093,149.0
10094,149.0
10095,150.0
10096,149.0
10097,150.0
10098,149.0
10099,148.0
10100,146.0
10101,147.0
10102,147.0
10103,148.0
10104,146.0
10105,147.0
10106,150.0
10107,149.0
10108,149.0
10109,152.0
10110,154.0
10111,153.0
10112,152.0
10113,150.0
10114,150.0
10115,150.0
10116,152.0
10117,151.0
10118,151.0
10119,152.0
10120,150.0
10121,148.0
10122,151.0
10123,150.0
10124,148.0
10125,149.0
10126,148.0
10127,147.0
10128,147.0
10129,150.0
10130,151.0
10131,149.0
10132,152.0
10133,152.0
10134,152.0
10135,153.0
10136,153.0
10137,152.0
10138,151.0
10139,149.0
10140,149.0
10141,149.0
10142,149.0
10143,151.0
10144,155.0
10145,156.0
10146,155.0
10147,153.0
10148,152.0
10149,151.0
10150,152.0
10151,152.0
10152,150.0
10153,153.0
10154,151.0
10155,149.0
10156,154.0
10157,152.0
10158,155.0
10159,156.0
10160,152.0
10161,153.0
10162,156.0
10163,155.0
10164,156.0
10165,155.0
10166,156.0
10167,155.0
10168,157.0
10169,156.0
10170,155.0
10171,156.0
10172,157.0
10173,157.0
10174,158.0
10175,159.0
10176,157.0
10177,157.0
10178,157.0
10179,157.0
10180,157.0
10181,157.0
10182,157.0
10183,157.0
10184,160.0
10185,159.0
10186,159.0
10187,160.0
10188,163.0
10189,163.0
10190,162.0
10191,161.0
10192,158.0
10193,160.0
10194,160.0
10195,160.0
10196,164.0
10197,164.0
10198,164.0
10199,165.0
10200,165.0
10201,166.0
10202,165.0
10203,165.0
10204,164.0
10205,164.0
10206,166.0
10207,163.0
10208,164.0
10209,165.0
10210,165.0
10211,166.0
10212,164.0
10213,165.0
10214,169.0
10215,165.0
10216,166.0
10217,166.0
10218,166.0
10219,166.0
10220,166.0
10221,167.0
10222,165.0
10223,166.0
10224,164.0
10225,165.0
10226,166.0
10227,167.0
10228,163.0
10229,161.0
10230,160.0
10231,163.0
10232,162.0
10233,163.0
10234,161.0
10235,160.0
10236,161.0
10237,161.0
10238,159.0
10239,158.0
10240,158.0
10241,156.0
10242,158.0
10243,156.0
10244,155.0
10245,158.0
10246,156.0
10247,155.0
10248,155.0
10249,156.0
10250,154.0
10251,154.0
10252,153.0
10253,152.0
10254,153.0
10255,151.0
10256,150.0
10257,151.0
10258,152.0
10259,151.0
10260,150.0
10261,150.0
10262,150.0
10263,148.0
10264,147.0
10265,152.0
10266,147.0
10267,148.0
10268,146.0
10269,146.0
10270,146.0
10271,147.0
10272,144.0
10273,144.0
10274,146.0
10275,147.0
10276,146.0
10277,147.0
10278,151.0
10279,151.0
10280,151.0
10281,149.0
10282,149.0
10283,147.0
10284,146.0
10285,146.0
10286,150.0
10287,149.0
10288,145.0
10289,149.0
10290,148.0
10291,151.0
10292,149.0
10293,148.0
10294,147.0
10295,146.0
10296,147.0
10297,146.0
10298,146.0
10299,148.0
10300,148.0
10301,144.0
10302,147.0
10303,148.0
10304,148.0
10305,147.0
10306,148.0
10307,150.0
10308,149.0
10309,148.0
10310,146.0
10311,149.0
10312,153.0
10313,146.0
10314,147.0
10315,147.0
10316,144.0
10317,149.0
10318,149.0
10319,149.0
10320,148.0
10321,147.0
10322,147.0
10323,147.0
10324,147.0
10325,147.0
10326,146.0
10327,147.0
10328,148.0
10329,147.0
10330,148.0
10331,148.0
10332,147.0
10333,144.0
10334,148.0
10335,149.0
10336,147.0
10337,145.0
10338,146.0
10339,147.0
10340,149.0
10341,148.0
10342,147.0
10343,147.0
10344,148.0
10345,147.0
10346,146.0
10347,144.0
10348,146.0
10349,145.0
10350,145.0
10351,146.0
10352,146.0
10353,145.0
10354,144.0
10355,144.0
10356,149.0
10357,147.0
10358,147.0
10359,149.0
10360,148.0
10361,149.0
10362,146.0
10363,146.0
10364,147.0
10365,147.0
10366,146.0
10367,146.0
10368,144.0
10369,144.0
10370,148.0
10371,149.0
10372,149.0
10373,149.0
10374,149.0
10375,149.0
10376,149.0
10377,147.0
10378,146.0
10379,144.0
10380,149.0
10381,147.0
10382,148.0
10383,148.0
10384,149.0
10385,150.0
10386,149.0
10387,149.0
10388,149.0
10389,147.0
10390,147.0
10391,146.0
10392,145.0
10393,146.0
10394,146.0
10395,147.0
10396,147.0
10397,151.0
10398,150.0
10399,148.0
10400,145.0
10401,147.0
10402,146.0
10403,146.0
10404,147.0
10405,148.0
10406,148.0
10407,145.0
10408,145.0
10409,146.0
10410,148.0
10411,148.0
10412,148.0
10413,146.0
10414,145.0
10415,142.0
10416,149.0
10417,151.0
10418,151.0
10419,153.0
10420,152.0
10421,152.0
10422,151.0
10423,149.0
10424,146.0
10425,145.0
10426,148.0
10427,150.0
10428,149.0
10429,149.0
10430,148.0
10431,149.0
10432,149.0
10433,145.0
10434,147.0
10435,148.0
10436,146.0
10437,147.0
10438,147.0
10439,150.0
10440,152.0
10441,152.0
10442,151.0
10443,151.0
10444,151.0
10445,151.0
10446,148.0
10447,148.0
10448,149.0
10449,150.0
10450,147.0
10451,147.0
10452,150.0
10453,150.0
10454,148.0
10455,146.0
10456,144.0
10457,149.0
10458,148.0
10459,143.0
10460,147.0
10461,153.0
10462,151.0
10463,151.0
10464,151.0
10465,153.0
10466,153.0
10467,150.0
10468,149.0
10469,149.0
10470,147.0
10471,146.0
10472,145.0
10473,148.0
10474,147.0
10475,147.0
10476,148.0
10477,149.0
10478,150.0
10479,152.0
10480,153.0
10481,151.0
10482,151.0
10483,151.0
10484,150.0
10485,149.0
10486,149.0
10487,148.0
10488,150.0
10489,150.0
10490,149.0
10491,148.0
10492,152.0
10493,153.0
10494,150.0
10495,150.0
10496,149.0
10497,151.0
10498,148.0
10499,146.0
10500,153.0
10501,152.0
10502,149.0
10503,150.0
10504,151.0
10505,150.0
10506,151.0
10507,149.0
10508,149.0
10509,150.0
10510,150.0
10511,149.0
10512,153.0
10513,157.0
10514,154.0
10515,153.0
10516,151.0
10517,149.0
10518,152.0
10519,151.0
10520,149.0
10521,149.0
10522,151.0
10523,150.0
10524,150.0
10525,146.0
10526,149.0
10527,150.0
10528,151.0
10529,150.0
10530,150.0
10531,149.0
10532,146.0
10533,146.0
10534,152.0
10535,150.0
10536,152.0
10537,151.0
10538,148.0
10539,152.0
10540,150.0
10541,149.0
10542,152.0
10543,153.0
10544,154.0
10545,153.0
10546,152.0
10547,151.0
10548,151.0
10549,153.0
10550,152.0
10551,150.0
10552,150.0
10553,150.0
10554,150.0
10555,150.0
10556,149.0
10557,149.0
10558,152.0
10559,151.0
10560,149.0
10561,152.0
10562,154.0
10563,152.0
10564,152.0
10565,152.0
10566,152.0
10567,153.0
10568,157.0
10569,153.0
10570,154.0
10571,152.0
10572,153.0
10573,153.0
10574,152.0
10575,152.0
10576,150.0
10577,152.0
10578,152.0
10579,149.0
10580,151.0
10581,150.0
10582,148.0
10583,148.0
10584,148.0
10585,151.0
10586,153.0
10587,154.0
10588,156.0
10589,154.0
10590,152.0
10591,152.0
10592,152.0
10593,151.0
10594,150.0
10595,150.0
10596,151.0
10597,154.0
10598,154.0
10599,150.0
10600,151.0
10601,154.0
10602,153.0
10603,155.0
10604,153.0
10605,152.0
10606,155.0
10607,154.0
10608,153.0
10609,153.0
10610,152.0
10611,154.0
10612,151.0
10613,152.0
10614,150.0
10615,149.0
10616,148.0
10617,150.0
10618,150.0
10619,153.0
10620,154.0
10621,153.0
10622,153.0
10623,150.0
10624,150.0
10625,153.0
10626,151.0
10627,150.0
10628,151.0
10629,151.0
10630,152.0
10631,153.0
10632,158.0
10633,156.0
10634,157.0
10635,157.0
10636,157.0
10637,158.0
10638,157.0
10639,153.0
10640,153.0
10641,154.0
10642,152.0
10643,152.0
10644,153.0
10645,153.0
10646,150.0
10647,150.0
10648,153.0
10649,153.0
10650,155.0
10651,156.0
10652,157.0
10653,157.0
10654,153.0
10655,153.0
10656,154.0
10657,152.0
10658,151.0
10659,152.0
10660,151.0
10661,154.0
10662,155.0
10663,153.0
10664,154.0
10665,154.0
10666,153.0
10667,153.0
10668,153.0
10669,151.0
10670,153.0
10671,154.0
10672,152.0
10673,152.0
10674,152.0
10675,152.0
10676,152.0
10677,156.0
10678,158.0
10679,157.0
10680,156.0
10681,154.0
10682,153.0
10683,154.0
10684,153.0
10685,150.0
10686,154.0
10687,152.0
10688,154.0
10689,154.0
10690,156.0
10691,156.0
10692,151.0
10693,153.0
10694,153.0
10695,157.0
10696,156.0
10697,155.0
10698,152.0
10699,153.0
10700,156.0
10701,156.0
10702,154.0
10703,156.0
10704,154.0
10705,154.0
10706,153.0
10707,151.0
10708,153.0
10709,151.0
10710,153.0
10711,154.0
10712,155.0
10713,157.0
10714,154.0
10715,156.0
10716,158.0
10717,156.0
10718,156.0
10719,156.0
10720,157.0
10721,158.0
10722,154.0
10723,155.0
10724,153.0
10725,155.0
10726,153.0
10727,156.0
10728,156.0
10729,155.0
10730,155.0
10731,155.0
10732,155.0
10733,155.0
10734,154.0
10735,155.0
10736,151.0
10737,152.0
10738,157.0
10739,159.0
10740,157.0
10741,158.0
10742,156.0
10743,155.0
10744,155.0
10745,156.0
10746,154.0
10747,157.0
10748,154.0
10749,154.0
10750,153.0
10751,154.0
10752,152.0
10753,154.0
10754,156.0
10755,157.0
10756,157.0
10757,156.0
10758,155.0
10759,154.0
10760,154.0
10761,155.0
10762,155.0
10763,154.0
10764,154.0
10765,154.0
10766,155.0
10767,159.0
10768,157.0
10769,156.0
10770,156.0
10771,158.0
10772,160.0
10773,161.0
10774,160.0
10775,159.0
10776,159.0
10777,160.0
10778,158.0
10779,158.0
10780,159.0
10781,158.0
10782,158.0
10783,160.0
10784,159.0
10785,157.0
10786,158.0
10787,158.0
10788,156.0
10789,156.0
10790,156.0
10791,158.0
10792,157.0
10793,157.0
10794,157.0
10795,158.0
10796,159.0
10797,156.0
10798,154.0
10799,156.0
10800,157.0
10801,156.0
10802,155.0
10803,154.0
10804,153.0
10805,153.0
10806,155.0
10807,155.0
10808,153.0
10809,158.0
10810,158.0
10811,157.0
10812,155.0
10813,155.0
10814,157.0
10815,157.0
10816,157.0
10817,154.0
10818,154.0
10819,154.0
10820,155.0
10821,153.0
10822,153.0
10823,154.0
10824,154.0
10825,155.0
10826,155.0
10827,154.0
10828,154.0
10829,154.0
10830,156.0
10831,155.0
10832,155.0
10833,159.0
10834,157.0
10835,155.0
10836,157.0
10837,155.0
10838,155.0
10839,155.0
10840,156.0
10841,155.0
10842,155.0
10843,155.0
10844,154.0
10845,154.0
10846,154.0
10847,153.0
10848,155.0
10849,155.0
10850,153.0
10851,156.0
10852,156.0
10853,155.0
10854,154.0
10855,154.0
10856,154.0
10857,154.0
10858,155.0
10859,154.0
10860,154.0
10861,152.0
10862,151.0
10863,149.0
10864,150.0
10865,151.0
10866,153.0
10867,155.0
10868,156.0
10869,160.0
10870,164.0
10871,166.0
10872,169.0
10873,168.0
10874,170.0
10875,176.0
10876,176.0
10877,178.0
10878,180.0
10879,181.0
10880,181.0
10881,184.0
10882,184.0
10883,184.0
10884,186.0
10885,186.0
10886,184.0
10887,183.0
10888,182.0
10889,181.0
10890,175.0
10891,171.0
10892,165.0
10893,162.0
10894,157.0
10895,154.0
10896,151.0
10897,148.0
10898,150.0
10899,147.0
10900,145.0
10901,145.0
10902,147.0
10903,149.0
10904,148.0
10905,148.0
10906,148.0
10907,148.0
10908,148.0
10909,149.0
10910,149.0
10911,151.0
10912,151.0
10913,152.0
10914,152.0
10915,154.0
10916,153.0
10917,155.0
10918,157.0
10919,159.0
10920,155.0
10921,156.0
10922,158.0
10923,159.0
10924,159.0
