Indice,Anular,Anular filtered
-46480,-8.454686227,-8.987349643
-46474,-2.49579428,-8.342957257
-46477,-5.536934612,-7.696572339
-46475,-3.578106964,-7.048834087
-46476,-4.619311075,-6.400383536
-46472,-0.660546682,-5.751862199
-46473,-1.701813526,-5.103910704
-46476,-4.743111343,-4.457167435
-46469,2.215560127,-3.812267184
-46472,-0.825798853,-3.169839819
-46473,-1.86718802,-2.530508957
-46472,-0.908607113,-1.894890671
-46468,3.04994413,-1.263592207
-46466,5.008465972,-0.63721074
-46466,4.966958674,-0.016332147
-46470,0.925422498,0.598470173
-46473,-2.116142294,1.206636453
-46466,4.842264557,1.80762167
-46467,3.800643314,2.400896609
-46461,9.758994235,2.985948891
-46468,2.717317583,3.562283942
-46467,3.675613615,4.129425924
-46466,4.63388259,4.686918605
-46466,4.592124768,5.234326174
-46463,7.550340406,5.771234007
-46461,9.508529761,6.297249364
-46468,2.466693091,6.812002033
-46466,4.424830651,7.315144912
-46462,8.382942697,7.806354525
-46464,6.341029484,8.285331477
-46459,11.29909127,8.75180084
-46466,4.257128297,9.205512482
-46458,12.21514083,9.646241319
-46457,13.17312912,10.07378751
-46464,6.131093405,10.48797659
-46461,9.089033948,10.8886595
-46455,15.04695099,11.27571264
-46457,13.00484479,11.64903772
-46461,8.962715584,12.0085617
-46457,12.92056362,12.35423653
-46458,11.87838914,12.68603892
-46456,13.8361924,13.00397004
-46460,9.793973619,13.30805506
-46459,10.75173305,13.59834281
-46458,11.70947094,13.87490519
-46457,12.66718752,14.13783669
-46457,12.62488303,14.38725375
-46454,15.58255769,14.6232941
-46455,14.54021176,14.84611611
-46452,17.49784546,15.05589796
-46455,14.45545902,15.25283694
-46451,18.41305267,15.43714856
-46453,16.37062665,15.6090657
-46454,15.32818117,15.76883773
-46453,16.28571647,15.91672955
-46455,14.24323276,16.05302063
-46455,14.20073028,16.17800406
-46453,16.15820923,16.29198551
-46456,13.11566985,16.39528219
-46456,13.07311234,16.48822187
-46452,17.03053692,16.57114174
-46455,13.98794382,16.64438741
-46454,14.94533323,16.70831182
-46453,15.90270538,16.76327415
-46450,18.86006047,16.80963876
-46450,18.81739871,16.8477741
-46456,12.77472032,16.8780517
-46455,13.73202549,16.90084502
-46454,14.68931443,16.9165285
-46451,17.64658734,16.92547647
-46450,18.60384443,16.92806216
-46456,12.56108588,16.9246567
-46454,14.51831191,16.91562818
-46458,10.4755227,16.90134066
-46453,15.43271846,16.8821533
-46454,14.38989937,16.85841946
-46453,15.34706562,16.83048586
-46451,17.30421742,16.79869173
-46446,22.26135494,16.76336809
-46450,18.21847837,16.72483696
-46448,20.17558791,16.68341068
-46446,22.13268373,16.63939124
-46448,20.08976601,16.5930697
-46452,16.04683494,16.54472558
-46449,19.00389069,16.49462635
-46455,12.96093344,16.44302696
-46451,16.91796337,16.3901694
-46455,12.87498063,16.3362823
-46446,21.83198542,16.28158063
-46452,15.78897788,16.22626539
-46453,14.74595821,16.17052339
-46454,13.70292655,16.11452701
-46455,12.65988307,16.05843415
-46452,15.61682795,16.00238802
-46456,11.57376133,15.94651722
-46450,17.53068338,15.89093564
-46448,19.48759426,15.83574257
-46453,14.44449413,15.78102276
-46449,18.40138314,15.72684659
-46451,16.35826145,15.67327022
-46453,14.3151292,15.62033586
-46454,13.27198656,15.56807198
-46452,15.22883366,15.51649366
-46455,12.18567066,15.46560292
-46450,17.1424977,15.4153891
-46457,10.09931493,15.36582929
-46452,15.0561225,15.31688874
-46451,16.01292054,15.26852139
-46450,16.96970919,15.22067034
-46451,15.9264886,15.1732684
-46452,14.88325891,15.12623866
-46454,12.84002024,15.07949506
-46451,15.79677274,15.03294299
-46455,11.75351653,14.98647993
-46445,21.71025176,14.93999608
-46452,14.66697855,14.89337499
-46451,15.62369702,14.84649426
-46453,13.58040731,14.7992262
-46457,9.537109546,14.75143848
-46454,12.49380385,14.70299488
-46456,10.45049034,14.65375589
-46453,13.40716914,14.60357948
-46452,14.36384037,14.55232174
-46449,17.32050416,14.49983756
-46451,15.27716062,14.4459813
-46452,14.23380987,14.39060751
-46456,10.19045201,14.33357152
-46444,22.14708718,14.2747301
-46454,12.10371547,14.21394212
-46458,8.060337005,14.15106912
-46453,13.01695189,14.08597596
-46447,18.97356023,14.01853133
-46453,12.93016213,13.94860837
-46453,12.8867577,13.87608517
-46453,12.84334705,13.80084527
-46452,13.79993027,13.72277819
-46449,16.75650747,13.64177985
-46456,9.713078747,13.55775303
-46454,11.6696442,13.47060774
-46457,8.626203929,13.38026166
-46455,10.58275803,13.28664042
-46452,13.53930659,13.18967797
-46454,11.49584971,13.08931683
-46445,20.45238749,12.9855084
-46451,14.40892001,12.87821311
-46448,17.36544737,12.76740069
-46453,12.32196964,12.65305029
-46451,14.27848693,12.53515063
-46453,12.23499931,12.41370009
-46452,13.19150688,12.28870679
-46453,12.1480097,12.16018863
-46453,12.10450787,12.02817329
-46453,12.06100146,11.89269821
-46449,16.01749055,11.75381056
-46456,8.97397523,11.61156712
-46453,11.93045556,11.46603423
-46451,13.88693163,11.3172876
-46455,9.843403504,11.16541217
-46452,12.79987126,11.01050194
-46454,10.75633496,10.85265974
-46459,5.712794693,10.69199699
-46452,12.66925051,10.52863346
-46458,6.625702497,10.36269697
-46452,12.58215071,10.19432314
-46456,8.538595216,10.02365498
-46456,8.495036086,9.850842665
-46455,9.451473382,9.676043093
-46458,6.40790717,9.499419564
-46454,10.36433751,9.321141389
-46454,10.32076447,9.141383488
-46458,6.277188106,8.960325997
-46456,8.233608481,8.778153841
-46456,8.190025655,8.59505632
-46454,10.14643969,8.411226671
-46454,10.10285063,8.226861636
-46452,12.05925855,8.042161016
-46455,9.015663498,7.857327232
-46455,8.97206553,7.672564871
-46457,6.928464698,7.488080242
-46455,8.884861058,7.304080931
-46459,4.841254661,7.120775351
-46457,6.797645559,6.938372299
-46460,3.754033803,6.75708052
-46459,4.710419444,6.577108271
-46458,5.66680253,6.398662892
-46467,-3.376816887,6.221950385
-46460,3.579561241,6.047175002
-46459,4.535936962,5.874538837
-46460,3.492310327,5.704241435
-46458,5.448681383,5.536479405
-46461,2.405050178,5.371446048
-46459,4.361416759,5.209330992
-46458,5.317781175,5.050319849
-46459,4.274143471,4.894593874
-46456,7.230503694,4.742329647
-46461,2.186861889,4.59369876
-46461,2.143218102,4.448867529
-46456,7.099572377,4.307996711
-46460,3.055924759,4.171241244
-46463,0.012275292,4.038749997
-46456,6.96862402,3.910665539
-46462,0.924970985,3.78712392
-46450,12.88131623,3.668254477
-46460,2.837659799,3.554179642
-46462,0.794001732,3.445014781
-46461,1.750342071,3.340868034
-46456,6.706680857,3.241840188
-46460,2.663018131,3.14802455
-46462,0.619353932,3.059506843
-46458,4.5756883,2.976365122
-46459,3.532021276,2.898669696
-46458,4.488352898,2.82648307
-46456,6.444683206,2.759859905
-46460,2.401012237,2.698846986
-46462,0.35734003,2.643483208
-46460,2.313666623,2.593799577
-46458,4.269992052,2.549819224
-46457,5.226316355,2.511557428
-46457,5.182639569,2.479021662
-46455,7.138961729,2.452211637
-46458,4.095282872,2.431119373
-46460,2.051603033,2.415729273
-46459,3.007922246,2.406018211
-46454,7.964240545,2.401955628
-46463,-1.079442035,2.403503644
-46462,-0.123125461,2.410617178
-46459,2.833190301,2.423244071
-46461,0.789505283,2.441325233
-46461,0.745819519,2.464794783
-46461,0.702133041,2.493580205
-46459,2.658445882,2.527602517
-46460,1.614758076,2.566776436
-46455,6.571069654,2.611010561
-46457,4.527380648,2.660207555
-46459,2.48369109,2.714264338
-46457,4.440001012,2.773072288
-46453,8.396310444,2.836517438
-46458,3.352619416,2.904480693
-46460,1.308927958,2.976838038
-46461,0.2652361,3.053460758
-46457,4.22154387,3.134215665
-46459,2.177851298,3.21896532
-46459,2.134158411,3.307568266
-46461,0.090465239,3.399879264
-46460,1.046771809,3.495749527
-46458,3.003078149,3.595026961
-46455,5.959384288,3.697556408
-46457,3.915690252,3.803179892
-46461,-0.12800393,3.911736861
-46457,3.828301767,4.023064438
-46458,2.78460737,4.136997671
-46454,6.740912906,4.253369778
-46453,7.697218399,4.372012406
-46453,7.653523876,4.492755871
-46458,2.60982936,4.615429421
-46459,1.566134876,4.739861475
-46457,3.522440446,4.865879885
-46457,3.478746095,4.993312174
-46459,1.435051845,5.121985794
-46459,1.391357718,5.251728366
-46456,4.347663737,5.382367931
-46454,6.303969924,5.513733187
-46456,4.260276301,5.645653736
-46457,3.216582888,5.777960319
-46461,-0.827110294,5.910485052
-46459,1.129196776,6.043061658
-46457,3.085504119,6.175525698
-46455,5.041811753,6.307714794
-46455,4.998119699,6.43946885
-46453,6.954427977,6.57063027
-46455,4.910736605,6.701044171
-46446,13.8670456,6.830558585
-46449,10.82335498,6.959024669
-46454,5.779664766,7.086296894
-46449,10.73597497,7.212233239
-46451,8.6922856,7.336695375
-46447,12.64859668,7.459548845
-46452,7.604908215,7.580663231
-46452,7.561220221,7.699912323
-46450,9.517532707,7.817174276
-46449,10.47384568,7.932331756
-46453,6.430159159,8.045272088
-46446,13.38647314,8.155887386
-46446,13.34278764,8.26407468
-46451,8.299102653,8.369736037
-46450,9.255418194,8.472778665
-46451,8.211734263,8.573115015
-46452,7.168050863,8.670662875
-46445,14.124368,8.765345447
-46451,8.080685665,8.857091422
-46449,10.03700387,8.94583504
-46454,4.993322603,9.031516146
-46454,4.94964187,9.11408023
-46453,5.905961667,9.193478459
-46455,3.86228199,9.269667699
-46450,8.818602835,9.34261053
-46455,3.7749242,9.412275243
-46451,7.731246078,9.478635833
-46454,4.687568465,9.541671976
-46449,9.643891354,9.601369004
-46444,14.60021474,9.657717858
-46453,5.556538614,9.710715039
-46445,13.51286297,9.760362544
-46450,8.469187792,9.806667796
-46446,12.42551308,9.849643558
-46452,6.381838806,9.889307837
-46441,17.33816497,9.925683786
-46450,8.294491558,9.958799584
-46449,9.250818551,9.988688315
-46444,14.20714593,10.01538783
-46450,8.16347369,10.03894062
-46441,17.1198018,10.05939363
-46451,7.076130245,10.07679813
-46448,10.032459,10.09120954
-46453,4.988788057,10.10268721
-46453,4.945117379,10.1112943
-46447,10.90144695,10.11709754
-46448,9.857776742,10.12016703
-46448,9.814106733,10.12057605
-46448,9.770436897,10.11840081
-46450,7.726767207,10.11372028
-46448,9.683097636,10.10661591
-46449,8.639428154,10.09717142
-46446,11.59575873,10.08547258
-46443,14.55208934,10.07160691
-46447,10.50841995,10.05566351
-46444,13.46475052,10.03773275
-46448,9.421081027,10.01790605
-46445,12.37741143,9.99627562
-46447,10.33374169,9.972934205
-46448,9.290071774,9.947974825
-46447,10.24640164,9.921490526
-46451,6.202731256,9.893574125
-46447,10.15906057,9.864317955
-46445,12.11538956,9.833813619
-46450,7.071718159,9.802151734
-46446,11.02804634,9.769421696
-46449,7.984374055,9.73571143
-46449,7.940701259,9.70110716
-46449,7.897027906,9.665693179
-46449,7.85335395,9.62955162
-46444,12.80967934,9.592762242
-46452,4.766004035,9.555402218
-46449,7.722327979,9.517545933
-46448,8.678651124,9.479264788
-46447,9.63497342,9.44062702
-46442,14.59129481,9.401697519
-46446,10.54761525,9.362537671
-46450,6.503934684,9.323205196
-46445,11.46025305,9.283754012
-46448,8.416570299,9.244234096
-46440,16.37288637,9.204691371
-46449,7.329201209,9.165167592
-46447,9.285514753,9.125700258
-46450,6.241826944,9.086322528
-46452,4.19813772,9.04706315
-46449,7.154447019,9.007946412
-46442,14.11075478,8.968992098
-46445,11.06706094,8.930215463
-46449,7.023365434,8.891627219
-46448,7.979668197,8.853233539
-46449,6.935969162,8.81503607
-46446,9.892268264,8.777031966
-46443,12.84856543,8.739213932
-46451,4.804860603,8.701570278
-46452,3.761153703,8.664084998
-46441,14.71744466,8.626737847
-46447,8.67373341,8.58950445
-46448,7.630019874,8.552356403
-46444,11.58630398,8.515261408
-46450,5.54258566,8.478183399
-46448,7.498864833,8.441082703
-46449,6.455141425,8.403916189
-46447,8.41141536,8.366637445
-46447,8.36768656,8.329196958
-46447,8.323954949,8.291542306
-46444,11.28022045,8.253618355
-46448,7.236482976,8.215367469
-46450,5.192742454,8.17672973
-46452,3.1489988,8.137643156
-46451,4.105251932,8.098043932
-46451,4.061501769,8.057866648
-46445,10.01774823,8.017044537
-46444,10.97399122,7.97550972
-46452,2.930230674,7.933193453
-46444,10.88646649,7.890026377
-46448,6.842698598,7.845938771
-46449,5.798926899,7.800860802
-46447,7.755151311,7.75472278
-46444,10.71137174,7.707455408
-46449,5.667588111,7.658990031
-46448,6.623800322,7.609258887
-46450,4.580008287,7.558195348
-46447,7.536211914,7.505734163
-46447,7.492411114,7.45181169
-46445,9.448605792,7.396366128
-46446,8.404795857,7.33933774
-46448,6.360981215,7.280669069
-46446,8.31716177,7.220305148
-46448,6.273337428,7.158193698
-46446,8.229508092,7.09428532
-46446,8.185673667,7.028533674
-46449,5.141834053,6.960895655
-46446,8.097989153,6.891331548
-46448,6.054138867,6.819805178
-46447,7.010283096,6.746284049
-46444,9.96642174,6.670739464
-46450,3.922554697,6.59314664
-46441,12.87868187,6.513484805
-46447,6.834803143,6.431737283
-46444,9.790918425,6.347891567
-46445,8.747027607,6.261939373
-46447,6.703130584,6.173876684
-46448,5.65922725,6.083703782
-46445,8.615317498,5.991425258
-46447,6.57140122,5.897050013
-46446,7.527478308,5.800591247
-46451,2.483548652,5.702066422
-46450,3.439612143,5.60149723
-46452,1.395668671,5.498909524
-46447,6.351718125,5.394333254
-46445,8.307760395,5.287802381
-46449,4.263795369,5.179354776
-46444,9.219822935,5.069032112
-46450,3.17584298,4.956879738
-46448,5.131855391,4.842946542
-46451,2.087860055,4.727284807
-46451,2.043856857,4.609950048
-46451,1.999845681,4.491000845
-46449,3.955826415,4.370498664
-46450,2.911798942,4.248507667
-46451,1.867763147,4.125094513
-46452,0.823718914,4.000328156
-46448,4.779666128,3.874279632
-46450,2.735604673,3.747021837
-46446,6.69153443,3.618629302
-46454,-1.352544715,3.48917797
-46452,0.60336712,3.358744951
-46450,2.559269816,3.227408294
-46451,1.515163257,3.095246742
-46451,1.471047325,2.962339492
-46451,1.426921902,2.828765953
-46450,2.382786869,2.694605502
-46448,4.338642109,2.559937243
-46451,1.294487503,2.424839768
-46447,5.250322932,2.289390919
-46450,2.206148277,2.153667553
-46449,3.161963418,2.017745311
-46448,4.117768235,1.881698398
-46450,2.073562608,1.745599355
-46448,4.029346417,1.609518855
-46449,2.985119539,1.473525489
-46450,1.940881856,1.337685574
-46447,4.896633243,1.20206296
-46451,0.852373581,1.06671885
-46451,0.808102746,0.931711629
-46448,3.763820616,0.797096707
-46449,2.719527068,0.662926365
-46448,3.67522198,0.529249618
-46448,3.630905228,0.396112091
-46451,0.586576689,0.263555903
-46447,4.542236238,0.131619566
-46450,1.497883753,0.000337897
-46455,-3.546480893,-0.130258058
-46454,-2.590857823,-0.260141085
-46455,-3.635247162,-0.389287851
-46455,-3.679649034,-0.517678934
-46458,-6.724063563,-0.645298851
-46452,-0.768490871,-0.772136058
-46456,-4.812931083,-0.898182944
-46453,-1.85738432,-1.023435809
-46454,-2.901850706,-1.147894831
-46449,2.053669637,-1.271564014
-46455,-3.990823412,-1.394451126
-46451,-0.035329975,-1.516567624
-46451,-0.079850175,-1.637928563
-46452,-1.124384134,-1.758552499
-46457,-6.168931973,-1.878461368
-46454,-3.213493813,-1.997680367
-46453,-2.258069777,-2.116237813
-46453,-2.302659984,-2.234164996
-46452,-1.347264557,-2.351496019
-46458,-7.391883614,-2.468267632
-46449,1.563482722,-2.584519051
-46460,-9.481165666,-2.700291775
-46456,-5.5258289,-2.815629389
-46460,-9.570507097,-2.930577364
-46450,0.384799623,-3.045182847
-46451,-0.659908858,-3.15949445
-46450,0.295367344,-3.273562025
-46450,0.25062811,-3.387436449
-46457,-6.794126677,-3.501169387
-46454,-3.838897135,-3.61481307
-46460,-9.88368338,-3.728420062
-46453,-2.92848553,-3.842043023
-46453,-2.9733037,-3.955734479
-46456,-6.018138006,-4.069546591
-46454,-4.062988563,-4.183530919
-46455,-5.107855486,-4.297738199
-46450,-0.152738888,-4.412218113
-46452,-2.197638885,-4.527019064
-46453,-3.242555589,-4.642187968
-46451,-1.287489115,-4.757770031
-46452,-2.332439575,-4.873808549
-46454,-4.377407084,-4.990344708
-46453,-3.422391753,-5.10741739
-46454,-4.467393697,-5.225062993
-46450,-0.512413026,-5.343315251
-46458,-8.557449853,-5.462205076
-46451,-1.602504291,-5.581760398
-46455,-5.647576449,-5.702006022
-46459,-9.692666439,-5.822963498
-46454,-4.737774371,-5.944650994
-46456,-6.782900355,-6.067083194
-46457,-7.8280445,-6.190271195
-46454,-4.873206915,-6.314222432
-46454,-4.918387707,-6.438940597
-46453,-3.963586983,-6.564425594
-46453,-4.00880485,-6.690673489
-46457,-8.054041415,-6.817676482
-46453,-4.099296784,-6.945422896
-46459,-10.14457106,-7.073897175
-46457,-8.189864354,-7.203079898
-46454,-5.235176763,-7.332947805
-46448,0.719491606,-7.463473847
-46458,-9.32585935,-7.594627232
-46455,-6.371229732,-7.726373505
-46460,-11.41661964,-7.858674627
-46457,-8.462029183,-7.991489074
-46462,-13.50745845,-8.124771949
-46457,-8.552907554,-8.258475104
-46451,-2.598376582,-8.392547275
-46453,-4.643865636,-8.526934234
-46460,-11.68937481,-8.661578945
-46460,-11.73490421,-8.796421733
-46461,-12.78045392,-8.931400467
-46458,-9.826024035,-9.06645075
-46459,-10.87161466,-9.201506115
-46460,-11.91722587,-9.336498237
-46461,-12.96285777,-9.471357143
-46459,-11.00851045,-9.606011436
-46457,-9.054183991,-9.740388526
-46451,-3.099878486,-9.874414858
-46457,-9.145594021,-10.00801615
-46461,-13.19133068,-10.14111764
-46462,-14.23708856,-10.27364432
-46459,-11.28286773,-10.4055212
-46463,-15.32866828,-10.53667354
-46459,-11.37449029,-10.66702708
-46460,-12.42033385,-10.79650834
-46456,-8.466199027,-10.92504482
-46462,-14.51208591,-11.05256525
-46461,-13.55799457,-11.17899985
-46450,-2.603925079,-11.30428054
-46459,-11.64987752,-11.42834118
-46455,-7.695851972,-11.55111783
-46456,-8.741848499,-11.67254889
-46454,-6.787867177,-11.79257541
-46462,-14.83390808,-11.91114119
-46462,-14.87997128,-12.02819308
-46457,-9.926056836,-12.14368107
-46460,-12.97216483,-12.25755853
-46457,-10.01829532,-12.36978236
-46460,-13.06444839,-12.4803131
-46456,-9.11062408,-12.58911515
-46458,-11.15682247,-12.69615683
-46457,-10.20304362,-12.80141052
-46459,-12.2492876,-12.90485278
-46462,-15.29555445,-13.00646439
-46461,-14.34184426,-13.10623049
-46459,-12.38815706,-13.20414058
-46459,-12.43449292,-13.30018861
-46456,-9.480851902,-13.39437296
-46457,-10.52723405,-13.48669651
-46462,-15.57363943,-13.5771666
-46467,-20.62006808,-13.66579504
-46458,-11.66652006,-13.75259805
-46458,-11.71299542,-13.83759624
-46461,-14.75949421,-13.92081455
-46460,-13.80601647,-14.00228215
-46463,-16.85256226,-14.08203235
-46456,-9.899131605,-14.16010255
-46457,-10.94572456,-14.23653403
-46458,-11.99234117,-14.31137189
-46461,-15.03898147,-14.38466488
-46456,-10.08564549,-14.45646521
-46463,-17.13233329,-14.52682844
-46459,-13.1790449,-14.59581324
-46461,-15.22578034,-14.6634812
-46456,-10.27253967,-14.72989666
-46462,-16.3193229,-14.79512646
-46459,-13.36613008,-14.85923971
-46463,-17.41296123,-14.92230757
-46460,-14.45981638,-14.984403
-46459,-13.50669556,-15.0456005
-46458,-12.5535988,-15.10597587
-46466,-20.60052612,-15.16560591
-46465,-19.64747754,-15.22456818
-46464,-18.69445309,-15.28294073
-46456,-10.74145279,-15.34080178
-46459,-13.78847665,-15.39822948
-46459,-13.83552469,-15.4553016
-46461,-15.88259692,-15.51209528
-46456,-10.92969337,-15.5686867
-46464,-18.97681405,-15.62515081
-46467,-22.02395895,-15.68156107
-46464,-19.07112811,-15.73798916
-46462,-17.11832152,-15.79450468
-46463,-18.16553919,-15.85117488
-46460,-15.21278112,-15.90806444
-46460,-15.26004732,-15.96523514
-46463,-18.30733779,-16.02274564
-46459,-14.35465252,-16.08065122
-46461,-16.40199152,-16.13900355
-46458,-13.44935479,-16.19785044
-46460,-15.49674231,-16.25723562
-46460,-15.54415408,-16.31719852
-46459,-14.5915901,-16.37777409
-46464,-19.63905035,-16.43899259
-46460,-15.68653482,-16.50087939
-46463,-18.73404351,-16.56345484
-46458,-13.78157639,-16.62673408
-46461,-16.82913346,-16.69072692
-46460,-15.87671469,-16.75543771
-46460,-15.92432006,-16.82086521
-46457,-12.97194956,-16.88700248
-46458,-14.01960317,-16.95383685
-46459,-15.06728085,-17.02134979
-46461,-17.11498259,-17.08951687
-46464,-20.16270836,-17.15830775
-46460,-16.21045814,-17.22768611
-46456,-12.25823188,-17.29760967
-46463,-19.30602957,-17.36803022
-46458,-14.35385117,-17.43889358
-46460,-16.40169665,-17.51013968
-46463,-19.44956597,-17.58170263
-46459,-15.49745909,-17.65351075
-46461,-17.54537598,-17.72548666
-46461,-17.59331659,-17.79754742
-46458,-14.64128088,-17.86960459
-46464,-20.68926882,-17.94156438
-46466,-22.73728035,-18.0133278
-46460,-16.78531542,-18.0847908
-46458,-14.833374,-18.15584446
-46460,-16.88145602,-18.22637513
-46459,-15.92956144,-18.29626466
-46460,-16.9776902,-18.36539056
-46462,-19.02584224,-18.43362626
-46458,-15.07401751,-18.50084132
-46464,-21.12221596,-18.56690163
-46461,-18.17043751,-18.63166968
-46462,-19.21868211,-18.69500482
-46460,-17.26694969,-18.75676349
-46457,-14.31524019,-18.81679949
-46466,-23.36355354,-18.87496425
-46463,-20.41188967,-18.93110714
-46462,-19.46024851,-18.98507569
-46462,-19.50862998,-19.03671591
-46463,-20.55703402,-19.08587257
-46463,-20.60546054,-19.1323895
-46459,-16.65390947,-19.17610986
-46456,-13.70238072,-19.21687643
-46458,-15.75087421,-19.25453196
-46456,-13.79938986,-19.28891937
-46462,-19.84792758,-19.31988212
-46465,-22.89648729,-19.34726446
-46460,-17.9450689,-19.37091174
-46463,-20.99367232,-19.39067067
-46459,-17.04229744,-19.40638963
-46456,-14.09094419,-19.41791891
-46466,-24.13961247,-19.42511104
-46459,-17.18830217,-19.427821
-46458,-16.23701319,-19.42590651
-46463,-21.28574545,-19.41922829
-46462,-20.33449882,-19.40765031
-46463,-21.38327321,-19.39104
-46463,-21.43206851,-19.36926855
-46460,-18.48088462,-19.34221108
-46461,-19.52972141,-19.30974686
-46462,-20.57857878,-19.27175959
-46466,-24.62745661,-19.22813751
-46460,-18.67635479,-19.17877368
-46460,-18.72527319,-19.12356609
-46460,-18.7742117,-19.0624179
-46459,-17.8231702,-18.99523758
-46458,-16.87214855,-18.92193904
-46460,-18.92114663,-18.84244184
-46456,-14.97016432,-18.75667129
-46461,-20.01920148,-18.66455858
-46462,-21.06825799,-18.56604091
-46460,-19.1173337,-18.46106161
-46461,-20.16642849,-18.34957022
-46463,-22.21554222,-18.23152259
-46458,-17.26467475,-18.10688098
-46461,-20.31382594,-17.97561412
-46460,-19.36299565,-17.83769726
-46457,-16.41218372,-17.69311225
-46456,-15.46139002,-17.54184759
-46457,-16.5106144,-17.38389843
-46454,-13.55985671,-17.21926666
-46457,-16.60911679,-17.04796086
-46459,-18.6583945,-16.86999639
-46457,-16.70768967,-16.68539531
-46458,-17.75700216,-16.49418646
-46454,-13.80633181,-16.29640539
-46455,-14.85567846,-16.09209435
-46456,-15.90504194,-15.88130229
-46456,-15.9544221,-15.6640848
-46455,-15.00381878,-15.44050408
-46456,-16.0532318,-15.21062887
-46454,-14.102661,-14.97453443
-46456,-16.15210621,-14.73230246
-46453,-13.20156727,-14.484021
-46457,-17.251044,-14.2297844
-46450,-10.30053624,-13.96969321
-46448,-8.350043798,-13.70385411
-46455,-15.39956651,-13.4323798
-46451,-11.44910421,-13.15538887
-46451,-11.4986567,-12.87300577
-46448,-8.548223818,-12.58536061
-46448,-8.59780538,-12.2925891
-46452,-12.6474012,-11.99483239
-46449,-9.697011114,-11.69223696
-46449,-9.746634924,-11.38495448
-46450,-10.79627245,-11.07314165
-46448,-8.845923517,-10.75696007
-46450,-10.89558793,-10.43657607
-46448,-8.945265509,-10.11216059
-46452,-12.99495607,-9.783888956
-46444,-5.044659412,-9.451940752
-46445,-6.09437536,-9.11649963
-46449,-10.14410372,-8.777753132
-46446,-7.193844303,-8.435892501
-46443,-4.243596918,-8.091112488
-46443,-4.293361374,-7.743611159
-46445,-6.343137478,-7.393589686
-46442,-3.392925039,-7.041252144
-46446,-7.442723864,-6.686805294
-46444,-5.492533759,-6.330458367
-46444,-5.542354531,-5.97242284
-46443,-4.592185986,-5.612912206
-46443,-4.642027928,-5.25214174
-46445,-6.691880163,-4.890328264
-46448,-9.741742494,-4.527689902
-46438,0.208385274,-4.164445832
-46438,0.158503339,-3.800816038
-46443,-4.891388102,-3.437021051
-46446,-7.941288852,-3.07328169
-46436,2.008801287,-2.709818803
-46442,-4.041117488,-2.346852996
-46439,-1.091044977,-1.984604369
-46446,-8.140980983,-1.623292239
-46437,0.809074694,-1.263134871
-46435,2.759122252,-0.904349201
-46444,-6.290838109,-0.547150558
-46439,-1.34080619,-0.191752386
-46443,-5.390781792,0.161634031
-46439,-1.440764715,0.512799854
-46440,-2.490754759,0.861538962
-46442,-4.540751723,1.207648227
-46438,-0.590755408,1.550927797
-46435,2.359234388,1.891181361
-46437,0.309217865,2.228216424
-46430,7.259195225,2.561844571
-46432,5.209166667,2.891881733
-46435,2.159132392,3.218148439
-46440,-2.890907402,3.540470075
-46434,3.059047486,3.858677124
-46435,2.008997255,4.172605409
-46436,0.958942103,4.482096325
-46434,2.908882229,4.786997059
-46437,-0.141182167,5.087160808
-46432,4.808749112,5.382446983
-46433,3.758676265,5.672721402
-46435,1.70859949,5.957856474
-46431,5.658518984,6.237731373
-46430,6.608434944,6.512232194
-46422,14.55834757,6.781252103
-46426,10.50825705,7.044691468
-46430,6.458163587,7.302457976
-46426,10.40806737,7.554466742
-46433,3.357968595,7.800640391
-46430,6.307867452,8.04090914
-46425,11.25776413,8.275210844
-46429,7.207658828,8.503491047
-46432,4.157551727,8.725702999
-46424,12.10744302,8.941807664
-46421,15.0573329,9.151773708
-46430,6.007221541,9.355577474
-46420,15.95710914,9.55320293
-46427,8.906995882,9.744641612
-46427,8.856881948,9.929892533
-46429,6.806767521,10.10896209
-46424,11.75665278,10.28186395
-46425,10.70653792,10.44861891
-46425,10.6564231,10.60925474
-46418,17.60630851,10.76380603
-46427,8.556194334,10.91231398
-46426,9.506080738,11.05482625
-46424,11.4559679,11.19139669
-46420,15.405856,11.32208511
-46422,13.3557452,11.44695711
-46424,11.30563569,11.56608372
-46419,16.25552762,11.6795412
-46422,13.20542117,11.78741075
-46428,7.155316509,11.88977818
-46422,13.1052138,11.98673364
-46423,12.05511321,12.07837132
-46423,12.0050149,12.16478909
-46426,8.954919033,12.2460882
-46421,13.90482578,12.32237295
-46422,12.85473529,12.39375034
-46421,13.80464773,12.46032975
-46421,13.75456326,12.52222257
-46421,13.70448203,12.57954189
-46420,14.6544042,12.63240211
-46418,16.60432993,12.68091867
-46418,16.55425936,12.72520762
-46421,13.50419265,12.76538536
-46422,12.45412995,12.80156827
-46424,10.40407141,12.83387238
-46424,10.35401716,12.8624131
-46420,14.30396737,12.88730483
-46421,13.25392217,12.90866073
-46420,14.20388171,12.92659238
-46422,12.15384612,12.94120955
-46424,10.10381556,12.95261986
-46417,17.05379016,12.96092861
-46420,14.00377005,12.96623846
-46423,10.95375538,12.96864926
-46427,6.903746288,12.96825781
-46419,14.8537429,12.96515767
-46422,11.80374534,12.959439
-46424,9.753753762,12.95118836
-46421,12.70376828,12.94048861
-46423,10.65378904,12.92741874
-46423,10.60381615,12.91205382
-46426,7.553849759,12.89446487
-46423,10.50388998,12.87471878
-46426,7.453936943,12.85287831
-46422,11.40399077,12.82900202
-46423,10.3540516,12.80314428
-46422,11.30411953,12.77535525
-46425,8.254194702,12.74568096
-46423,10.20427723,12.71416329
-46420,13.15436724,12.68084009
-46419,14.10446484,12.64574523
-46422,11.05457015,12.60890871
-46419,14.0046833,12.57035678
-46423,9.95480439,12.53011209
-46422,10.90493354,12.48819378
-46422,10.85507086,12.44461772
-46423,9.805216466,12.39939666
-46422,10.75537047,12.35254041
-46416,16.70553297,12.30405603
-46419,13.65570409,12.25394812
-46418,14.60588392,12.20221897
-46419,13.55607258,12.14886883
-46425,7.506270171,12.09389616
-46425,7.456476793,12.03729789
-46427,5.406692549,11.97906964
-46423,9.356917541,11.91920605
-46422,10.30715187,11.85770099
-46417,15.25739563,11.79454785
-46426,6.207648932,11.72973984
-46420,12.15791186,11.66327024
-46418,14.10818452,11.59513265
-46415,17.05846701,11.52532132
-46418,14.00875941,11.45383137
-46423,8.959061823,11.38065908
-46419,12.90937434,11.30580212
-46424,7.859697042,11.22925982
-46415,16.81003003,11.15103342
-46423,8.760373383,11.07112629
-46416,15.71072719,10.98954415
-46418,13.66109154,10.90629529
-46421,10.61146651,10.82139078
-46416,15.56185219,10.73484463
-46419,12.51224866,10.64667398
-46419,12.462656,10.55689928
-46422,9.413074279,10.46554438
-46419,12.36350359,10.3726367
-46425,6.313943993,10.27820735
-46421,10.26439558,10.18229116
-46423,8.21485841,10.08492683
-46416,15.16533257,9.986156926
-46422,9.115818124,9.886027974
-46416,15.06631515,9.784590434
-46423,8.01682371,9.681898727
-46419,11.96734388,9.57801121
-46422,8.917875726,9.472990142
-46415,15.86841931,9.366901629
-46420,10.81897471,9.259815552
-46429,1.769541982,9.151805475
-46424,6.720121189,9.042948533
-46423,7.670712396,8.933325311
-46424,6.621315665,8.823019699
-46421,9.571931058,8.712118726
-46422,8.522558635,8.600712394
-46425,5.473198458,8.488893477
-46426,4.423850586,8.376757323
-46418,12.37451508,8.264401631
-46424,6.325191987,8.151926218
-46420,10.27588138,8.039432781
-46420,10.2265833,7.927024634
-46421,9.177297814,7.814806451
-46426,4.128024972,7.702883987
-46422,8.078764827,7.591363802
-46423,7.029517433,7.480352968
-46422,7.980282841,7.369958781
-46423,6.931061103,7.26028846
-46422,7.88185227,7.151448849
-46424,5.832656391,7.043546114
-46426,3.783473517,6.93668544
-46422,7.734303694,6.830970731
-46430,-0.314853028,6.726504308
-46422,7.636003398,6.623386612
-46421,8.586873019,6.521715913
-46422,7.537755882,6.421588023
-46416,13.48865203,6.323096015
-46423,6.439561514,6.226329951
-46422,7.390484373,6.131376616
-46424,5.34142065,6.038319272
-46420,9.292370389,5.947237408
-46428,1.243333631,5.858206515
-46423,6.194310418,5.771297864
-46424,5.145300788,5.686578311
-46422,7.096304783,5.604110099
-46425,4.047322443,5.523950695
-46422,6.998353805,5.446152624
-46425,3.949398908,5.370763336
-46423,5.90045779,5.297825081
-46425,3.851530487,5.227374802
-46425,3.802617038,5.159444053
-46427,1.753717478,5.094058929
-46424,4.704831842,5.031240017
-46422,6.655960167,4.971002365
-46426,2.607102487,4.913355474
-46428,0.558258837,4.858303301
-46424,4.509429252,4.805844292
-46427,1.460613764,4.755971427
-46429,-0.58818759,4.70867228
-46425,3.36302522,4.663929109
-46423,5.31425223,4.621718953
-46420,8.265493472,4.582013755
-46430,-1.783251022,4.544780494
-46429,-0.831981218,4.509981342
-46430,-1.880697086,4.47757383
-46423,5.070601407,4.447511035
-46425,3.021914293,4.419741777
-46424,3.973241603,4.394210832
-46424,3.924583369,4.370859158
-46427,0.875939621,4.349624132
-46419,8.827310391,4.3304398
-46420,7.778695708,4.313237134
-46419,8.730095602,4.297944299
-46427,0.681510101,4.284486931
-46422,5.632939234,4.272788419
-46422,5.584383028,4.262770189
-46420,7.535841511,4.254352004
-46422,5.487314709,4.247452253
-46419,8.438802648,4.241988257
-46417,10.39030535,4.237876562
-46420,7.341822849,4.23503324
-46425,2.293355158,4.233374193
-46426,1.244902305,4.232815442
-46419,8.196464311,4.233273424
-46421,6.148041198,4.23466528
-46427,0.099632989,4.236909135
-46415,12.0512397,4.239924378
-46420,7.002861362,4.243631925
-46423,3.954497985,4.247954483
-46425,1.906149591,4.252816796
-46420,6.857816199,4.258145889
-46423,3.809497827,4.263871288
-46422,4.761194493,4.269925243
-46426,0.712906213,4.276242927
-46424,2.664633005,4.282762623
-46424,2.616374885,4.289425903
-46424,2.56813187,4.296177782
-46425,1.519903975,4.302966867
-46418,8.471691216,4.309745484
-46417,9.423493609,4.316469788
-46420,6.375311168,4.323099861
-46423,3.327143908,4.329599791
-46420,6.278991841,4.335937734
-46421,5.23085498,4.342085958
-46420,6.182733338,4.348020876
-46421,5.134626926,4.353723052
-46423,3.086535755,4.3591772
-46423,3.038459835,4.364372162
-46424,1.990399178,4.369300868
-46425,0.942353792,4.373960287
-46422,3.894323688,4.378351353
-46420,5.846308874,4.382478885
-46421,4.79830936,4.386351485
-46423,2.750325155,4.389981431
-46421,4.702356266,4.393384542
-46422,3.654402701,4.396580049
-46421,4.606464468,4.399590439
-46425,0.558541572,4.402441293
-46423,2.510634022,4.405161116
-46419,6.462741822,4.407781153
-46427,-1.585135021,4.4103352
-46417,8.367003499,4.412859402
-46422,3.319157387,4.415392051
-46413,12.27132665,4.41797337
-46424,1.223511283,4.420645298
-46424,1.1757113,4.423451267
-46419,6.127926699,4.426435976
-46419,6.080157485,4.429645165
-46419,6.032403658,4.433125385
-46420,4.98466522,4.436923767
-46424,0.936942173,4.441087793
-46421,3.889234517,4.445665065
-46422,2.841542253,4.450703083
-46421,3.793865379,4.456249015
-46419,5.746203897,4.462349482
-46422,2.698557804,4.469050337
-46418,6.650927101,4.476396461
-46420,4.603311784,4.48443155
-46423,1.555711852,4.493197924
-46422,2.508127303,4.502736331
-46421,3.460558132,4.51308577
-46419,5.413004338,4.524283309
-46420,4.365465916,4.536363925
-46421,3.317942862,4.549360347
-46423,1.270435172,4.563302907
-46421,3.22294284,4.578219411
-46420,4.175465862,4.594135005
-46417,7.128004233,4.61107207
-46419,5.080557945,4.62905011
-46421,3.033126994,4.648085671
-46422,1.985711371,4.668192253
-46422,1.938311069,4.689380244
-46419,4.890926082,4.711656866
-46419,4.8435564,4.735026131
-46415,8.796202015,4.759488805
-46415,8.748862919,4.785042388
-46420,3.701539102,4.811681109
-46418,5.654230553,4.839395922
-46416,7.606937261,4.868174527
-46419,4.559659215,4.898001387
-46415,8.512396402,4.928857769
-46418,5.46514881,4.96072179
-46421,2.417916425,4.993568471
-46420,3.370699233,5.027369805
-46422,1.323497219,5.062094831
-46415,8.276310369,5.097709722
-46420,3.229138667,5.134177878
-46420,3.181982098,5.171460024
-46418,5.134840646,5.209514325
-46417,6.087714294,5.248296499
-46419,4.040603025,5.287759942
-46415,7.993506822,5.327855858
-46415,7.946425666,5.368533391
-46412,10.89935954,5.409739772
-46418,4.85230842,5.451420458
-46419,3.80527229,5.493519284
-46419,3.758251127,5.535978612
-46416,6.711244909,5.578739491
-46417,5.664253615,5.621741811
-46417,5.617277222,5.664924463
-46412,10.57031571,5.708225499
-46416,6.523369044,5.751582294
-46419,3.47643721,5.794931703
-46417,5.42952018,5.838210226
-46414,8.382617927,5.881354164
-46416,6.335730424,5.924299776
-46410,12.28885765,5.966983436
-46421,1.241999562,6.009341782
-46417,5.195156145,6.05131187
-46414,8.148327366,6.092831314
-46414,8.101513193,6.133838428
-46417,5.054713597,6.174272367
-46416,6.007928547,6.214073252
-46417,4.961158009,6.2531823
-46420,1.914401952,6.291541939
-46422,-0.132339657,6.329095927
-46413,8.820933148,6.365789455
-46415,6.774220333,6.401569249
-46418,3.727521866,6.436383659
-46414,7.680837709,6.470182749
-46416,5.63416783,6.502918369
-46416,5.58751219,6.534544229
-46417,4.540870754,6.565015959
-46408,13.49424349,6.59429116
-46414,7.447630344,6.622329452
-46418,3.401031293,6.649092509
-46414,7.354446292,6.674544089
-46413,8.307875301,6.698650051
-46421,0.261318278,6.721378369
-46419,2.214775184,6.742699137
-46415,6.168245975,6.762584561
-46423,-1.878269391,6.781008948
-46416,5.075229045,6.797948688
-46413,8.02874124,6.813382221
-46416,4.98226715,6.827290007
-46415,5.935806731,6.83965448
-46417,3.889359941,6.85046
-46415,5.842926733,6.859692795
-46414,6.796507062,6.867340901
-46413,7.750100883,6.873394094
-46413,7.703708148,6.877843811
-46411,9.657328811,6.880683077
-46411,9.610962823,6.881906414
-46412,8.564610136,6.88150976
-46414,6.518270698,6.879490366
-46411,9.471944459,6.87584671
-46411,9.425631369,6.870578389
-46409,11.37933137,6.86368602
-46411,9.333044418,6.855171134
-46412,8.286770451,6.84503607
-46412,8.240509415,6.833283868
-46410,10.19426125,6.819918157
-46413,7.148025911,6.804943047
-46418,2.101803328,6.788363021
-46412,8.055593446,6.770182829
-46413,7.009396206,6.750407373
-46411,8.963211547,6.729041609
-46414,5.917039409,6.706090441
-46415,4.870879731,6.681558619
-46411,8.82473245,6.655450642
-46412,7.778597504,6.627770665
-46413,6.732474829,6.598522409
-46418,1.686364361,6.567709072
-46413,6.640266034,6.535333253
-46415,4.594179784,6.501396874
-46415,4.548105545,6.46590111
-46420,-0.49795675,6.428846327
-46415,4.455992833,6.390232024
-46414,5.409954227,6.350056784
-46409,10.36392736,6.308318227
-46416,3.317912177,6.26501298
-46413,6.271908597,6.220136643
-46412,7.225916554,6.173683772
-46413,6.179935979,6.125647864
-46411,8.133966801,6.076021355
-46414,5.088008949,6.024795621
-46415,4.042062351,5.971960993
-46412,6.996126935,5.917506772
-46411,7.950202627,5.861421266
-46413,5.904289354,5.803691816
-46407,11.85838704,5.744304851
-46413,5.812495614,5.683245934
-46411,7.766614996,5.620499825
-46410,8.720745111,5.556050552
-46416,2.67488588,5.489881484
-46419,-0.370962775,5.421975413
-46414,4.583199068,5.35231465
-46414,4.537371331,5.280881116
-46413,5.491553933,5.207656447
-46413,5.445746795,5.132622106
-46412,6.399949837,5.055759492
-46413,5.354162977,4.977050065
-46414,4.308386136,4.896475468
-46413,5.262619229,4.814017655
-46419,-0.783137824,4.729659021
-46413,5.171114893,4.643382543
-46413,5.125377298,4.55517191
-46414,4.079649306,4.465011671
-46412,6.033930834,4.372887365
-46414,3.988221798,4.278785675
-46414,3.942522111,4.182694559
-46414,3.89683169,4.084603398
-46419,-1.148849552,3.984503136
-46416,1.8054783,3.882386413
-46413,4.759815158,3.778247709
-46416,1.714160937,3.672083475
-46414,3.668515549,3.563892259
-46417,0.622878908,3.453674838
-46417,0.577250926,3.341434336
-46418,-0.468368483,3.227176341
-46412,5.486020591,3.110909015
-46412,5.440418062,2.992643196
-46415,2.394823842,2.872392498
-46414,3.349237841,2.7501734
-46418,-0.696340028,2.626005322
-46417,0.258090144,2.499910706
-46417,0.212528268,2.371915074
-46414,3.166974256,2.242047083
-46416,1.121428018,2.110338574
-46411,6.075889464,1.976824602
-46421,-3.969641496,1.841543463
-46414,2.984835048,1.704536709
-46410,6.939319007,1.565849146
-46416,0.893810288,1.425528832
-46415,1.848308802,1.283627051
-46411,5.802814458,1.140198288
-46414,2.757327163,0.995300182
-46414,2.711846826,0.848993473
-46415,1.666373355,0.701341939
-46417,-0.379093343,0.552412316
-46412,4.575446639,0.402274209
-46419,-2.470006791,0.250999995
-46414,2.484546274,0.098664711
-46418,-1.56089426,-0.054654068
-46416,0.393671514,-0.20887636
-46417,-0.651756496,-0.363919922
-46419,-2.697178384,-0.519700395
-46414,2.257405756,-0.676131473
-46418,-1.788004167,-0.833125069
-46414,2.166591752,-0.990591497
-46419,-2.878806579,-1.148439655
-46417,-0.924199253,-1.306577224
-46420,-3.969586363,-1.464910866
-46418,-2.014968003,-1.623346432
-46421,-5.060344264,-1.781789174
-46419,-3.10571524,-1.940143963
-46417,-1.151081022,-2.098315511
-46421,-5.196441701,-2.256208593
-46415,0.75820263,-2.413728276
-46417,-1.287148119,-2.570780147
-46422,-6.332494039,-2.72727054
-46414,1.622164778,-2.883106771
-46416,-0.423171759,-3.03819736
-46417,-1.468503739,-3.19245226
-46412,3.486168747,-3.345783085
-46417,-1.559154393,-3.498103324
-46416,-0.604473249,-3.649328564
-46412,3.350212089,-3.799376699
-46418,-2.695098471,-3.948168135
-46419,-3.740405019,-4.095625992
-46423,-7.785707646,-4.241676295
-46421,-5.831006443,-4.386248159
-46417,-1.876301499,-4.529273965
-46419,-3.921592904,-4.670689523
-46420,-4.966880746,-4.810434234
-46423,-8.012165115,-4.948451232
-46416,-1.057446098,-5.084687519
-46422,-7.102723784,-5.21909409
-46425,-10.14799826,-5.351626044
-46420,-5.19326961,-5.482242682
-46421,-6.238537923,-5.610907593
-46424,-9.283803283,-5.737588731
-46421,-6.329065775,-5.862258468
-46427,-12.37432548,-5.984893649
-46425,-10.41958249,-6.105475618
-46428,-13.46483688,-6.223990241
-46420,-5.510088727,-6.34042791
-46419,-4.555338119,-6.454783538
-46424,-9.600585132,-6.567056531
-46424,-9.645829845,-6.677250761
-46423,-8.691072336,-6.785374513
-46423,-8.736312682,-6.891440423
-46423,-8.78155096,-6.995465406
-46422,-7.826787244,-7.097470571
-46419,-4.872021609,-7.197481117
-46420,-5.917254129,-7.295526229
-46418,-3.962484878,-7.391638953
-46423,-9.007713929,-7.485856065
-46427,-13.05294135,-7.578217931
-46421,-7.098167222,-7.668768352
-46423,-9.143391607,-7.757554408
-46421,-7.188614577,-7.844626287
-46417,-3.233836201,-7.93003711
-46419,-5.279056548,-8.013842751
-46422,-8.324275685,-8.096101643
-46422,-8.369493679,-8.176874591
-46424,-10.4147106,-8.25622457
-46422,-8.459926507,-8.334216523
-46424,-10.50514147,-8.41091716
-46426,-12.55035555,-8.486394748
-46420,-6.595568815,-8.560718905
-46424,-10.64078132,-8.633960391
-46418,-4.685993134,-8.706190901
-46423,-9.73120431,-8.777482857
-46417,-3.776414911,-8.847909206
-46423,-9.821624996,-8.917543215
-46415,-1.866834623,-8.986458276
-46417,-3.912043849,-9.054727706
-46418,-4.957252732,-9.122424566
-46422,-9.00246133,-9.18962147
-46417,-4.047669698,-9.256390412
-46420,-7.092877892,-9.322802593
-46421,-8.138085968,-9.388928259
-46418,-5.18329398,-9.454836544
-46422,-9.228501983,-9.520595326
-46422,-9.273710029,-9.586271085
-46423,-10.31891817,-9.651928777
-46424,-11.36412646,-9.717631714
-46414,-1.409334949,-9.783441452
-46424,-11.45454369,-9.849417695
-46421,-8.49975272,-9.915618201
-46422,-9.5449621,-9.982098706
-46423,-10.59017187,-10.04891285
-46421,-8.635382088,-10.11611214
-46419,-6.680592789,-10.18374585
-46424,-11.72580402,-10.25186104
-46419,-6.771015827,-10.32050251
-46426,-13.81622825,-10.38971277
-46427,-14.86144134,-10.45953201
-46425,-12.90665512,-10.52999817
-46425,-12.95186965,-10.60114688
-46421,-8.997084963,-10.67301151
-46428,-16.04230109,-10.7456232
-46419,-7.087518071,-10.81901086
-46421,-9.132735941,-10.89320128
-46421,-9.177954734,-10.96821908
-46421,-9.223174484,-11.04408684
-46426,-14.26839522,-11.12082514
-46425,-13.31361698,-11.19845261
-46421,-9.358839792,-11.27698599
-46421,-9.404063682,-11.35644023
-46421,-9.449288681,-11.43682854
-46427,-15.49451481,-11.51816247
-46424,-12.53974211,-11.60045199
-46426,-14.58497059,-11.68370556
-46418,-6.630200282,-11.76793022
-46424,-12.67543121,-11.85313164
-46428,-16.72066338,-11.93931421
-46422,-10.76589684,-12.02648114
-46419,-7.81113158,-12.11463445
-46425,-13.85636764,-12.20377511
-46435,-23.90160502,-12.29390308
-46426,-14.94684375,-12.38501735
-46424,-12.99208383,-12.47711598
-46420,-9.037325283,-12.5701962
-46422,-11.08256812,-12.66425438
-46423,-12.12781234,-12.75928611
-46428,-17.17305796,-12.85528617
-46425,-14.21830499,-12.95224862
-46426,-15.26355343,-13.05016675
-46422,-11.30880328,-13.14903309
-46420,-9.354054557,-13.2488394
-46422,-11.39930726,-13.34957669
-46424,-13.44456138,-13.45123514
-46426,-15.48981692,-13.55380408
-46425,-14.53507389,-13.65727199
-46422,-11.58033228,-13.76162637
-46425,-14.62559208,-13.86685375
-46427,-16.6708533,-13.97293961
-46426,-15.71611592,-14.07986827
-46423,-12.76137993,-14.18762282
-46425,-14.80664533,-14.29618507
-46426,-15.85191211,-14.40553541
-46420,-9.897180248,-14.51565271
-46421,-10.94244974,-14.62651424
-46427,-16.98772056,-14.73809554
-46424,-14.03299271,-14.85037031
-46425,-15.07826615,-14.96331026
-46425,-15.12354088,-15.07688506
-46427,-17.16881688,-15.19106212
-46424,-14.21409411,-15.30580655
-46421,-11.25937256,-15.42108098
-46423,-13.30465221,-15.53684544
-46423,-13.34993302,-15.65305725
-46419,-9.395214973,-15.7696709
-46421,-11.44049804,-15.88663789
-46426,-16.48578219,-16.00390668
-46423,-13.53106739,-16.12142248
-46419,-9.576353619,-16.23912725
-46428,-18.62164083,-16.35695951
-46427,-17.666929,-16.47485429
-46429,-19.71221809,-16.59274302
-46425,-15.75750805,-16.71055348
-46424,-14.80279886,-16.82820969
-46426,-16.84809047,-16.94563186
-46427,-17.89338284,-17.06273636
-46428,-18.93867592,-17.17943566
-46426,-16.98396967,-17.29563831
-46423,-14.02926405,-17.4112489
-46423,-14.07455899,-17.52616808
-46430,-21.11985446,-17.64029259
-46433,-24.1651504,-17.75351522
-46429,-20.21044675,-17.8657249
-46427,-18.25574346,-17.97680672
-46431,-22.30104048,-18.08664201
-46424,-15.34633773,-18.19510842
-46425,-16.39163517,-18.30207999
-46429,-20.43693272,-18.40742729
-46428,-19.48223033,-18.51101753
-46427,-18.52752792,-18.61271467
-46430,-21.57282543,-18.71237962
-46428,-19.61812278,-18.80987038
-46427,-18.6634199,-18.90504222
-46427,-18.70871672,-18.99774786
-46429,-20.75401316,-19.08783772
-46428,-19.79930915,-19.1751601
-46422,-13.8446046,-19.25956144
-46427,-18.88989943,-19.34088655
-46423,-14.93519355,-19.41897886
-46428,-19.98048689,-19.49368073
-46431,-23.02577936,-19.56483366
-46425,-17.07107086,-19.63227866
-46422,-14.11636131,-19.69585646
-46427,-19.16165061,-19.75540791
-46431,-23.20693867,-19.81077419
-46427,-19.2522254,-19.86179722
-46430,-22.29751069,-19.90831994
-46425,-17.34279445,-19.95018664
-46422,-14.38807657,-19.98724329
-46426,-18.43335696,-20.0193379
-46425,-17.4786355,-20.04632086
-46427,-19.52391209,-20.06804522
-46422,-14.56918662,-20.08436713
-46428,-20.61445898,-20.09514607
-46427,-19.65972907,-20.10024527
-46428,-20.70499676,-20.09953202
-46423,-15.75026193,-20.09287796
-46426,-18.79552449,-20.08015947
-46426,-18.84078429,-20.06125794
-46424,-16.88604123,-20.03606011
-46426,-18.93129518,-20.00445836
-46429,-21.97654601,-19.96635102
-46432,-25.02179361,-19.92164264
-46427,-20.06703783,-19.87024426
-46426,-19.11227856,-19.81207371
-46427,-20.15751565,-19.74705581
-46427,-20.20274898,-19.67512267
-46427,-20.24797841,-19.59621385
-46433,-26.2932038,-19.51027661
-46424,-17.33842501,-19.41726608
-46425,-18.38364189,-19.31714547
-46423,-16.42885431,-19.20988617
-46422,-15.47406211,-19.09546797
-46425,-18.51926515,-18.97387911
-46425,-18.56446328,-18.84511643
-46423,-16.60965635,-18.70918545
-46422,-15.6548442,-18.56610042
-46427,-20.70002669,-18.41588438
-46424,-17.74520365,-18.25856917
-46422,-15.79037493,-18.09419545
-46426,-19.83554036,-17.92281272
-46425,-18.88069979,-17.74447919
-46422,-15.92585306,-17.55926182
-46427,-20.971,-17.3672362
-46422,-16.01614043,-17.16848646
-46426,-20.06127421,-16.96310515
-46427,-21.10640114,-16.75119313
-46423,-17.15152107,-16.53285935
-46421,-15.19663382,-16.30822076
-46418,-12.24173921,-16.07740207
-46422,-16.28683707,-15.84053552
-46423,-17.33192722,-15.59776071
-46420,-14.37700947,-15.3492243
-46424,-18.42208365,-15.09507977
-46419,-13.46714958,-14.83548716
-46418,-12.51220707,-14.57061274
-46420,-14.55725593,-14.30062876
-46419,-13.60229598,-14.02571308
-46418,-12.64732702,-13.74604886
-46421,-15.69234888,-13.46182422
-46413,-7.737361356,-13.17323192
-46418,-12.78236426,-12.88046893
-46419,-13.82735739,-12.58373613
-46418,-12.87234057,-12.28323793
-46418,-12.91731358,-11.97918183
-46417,-11.96227625,-11.67177812
-46417,-12.00722836,-11.36123943
-46418,-13.05216972,-11.04778037
-46416,-11.09710013,-10.73161713
-46418,-13.14201938,-10.4129671
-46415,-10.18692728,-10.09204845
-46413,-8.231823622,-9.769079794
-46412,-7.276708198,-9.444279746
-46411,-6.321580804,-9.11786658
-46414,-9.366441233,-8.790057838
-46412,-7.411289278,-8.461069963
-46412,-7.456124732,-8.131117938
-46412,-7.500947387,-7.800414927
-46409,-4.545757032,-7.469171934
-46414,-9.590553458,-7.137597465
-46411,-6.635336454,-6.805897201
-46407,-2.68010581,-6.474273687
-46406,-1.724861313,-6.142926027
-46410,-5.769602752,-5.8120496
-46404,0.185670087,-5.481835778
-46407,-2.859042585,-5.152471667
-46408,-3.903740554,-4.824139864
-46407,-2.948423608,-4.497018218
-46409,-4.993091533,-4.17127962
-46413,-9.037744115,-3.847091796
-46405,-1.08238114,-3.524617131
-46409,-5.127002393,-3.204012492
-46407,-3.171607659,-2.885429086
-46408,-4.216196723,-2.569012318
-46406,-2.260769369,-2.254901678
-46409,-5.30532538,-1.94323064
-46402,1.65013546,-1.634126578
-46405,-1.394386633,-1.327710699
-46402,1.561108558,-1.024097997
-46404,-0.48337875,-0.723397217
-46406,-2.52784834,-0.425710839
-46402,1.427700005,-0.131135078
-46406,-2.6167335,0.160240099
-46402,1.338851364,0.448330943
-46401,2.294454812,0.733059876
-46407,-3.749922937,1.01435543
-46404,-0.794281669,1.292152171
-46401,2.161378835,1.566390612
-46399,4.11705879,1.837017108
-46403,0.072758414,2.103983742
-46399,4.028477924,2.367248198
-46401,1.984217534,2.626773623
-46395,7.939977461,2.882528477
-46396,6.895757921,3.134486376
-46402,0.851559128,3.382625918
-46401,1.807381296,3.626930513
-46400,2.76322464,3.867388192
-46396,6.719089373,4.103991417
-46401,1.67497571,4.33673688
-46401,1.630883861,4.565625302
-46399,3.586814042,4.790661216
-46396,6.542766462,5.011852762
-46401,1.498741336,5.22921146
-46399,3.454738874,5.442751997
-46395,7.410759288,5.652491998
-46399,3.366802788,5.858451804
-46397,5.322869584,6.06065425
-46396,6.278959887,6.259124435
-46396,6.235073905,6.4538895
-46398,4.191211847,6.644978405
-46395,7.147373922,6.832421706
-46396,6.103560336,7.016251339
-46394,8.059771297,7.196500403
-46395,7.01600701,7.373202947
-46398,3.972267681,7.546393765
-46397,4.928553516,7.716108192
-46395,6.884864717,7.882381905
-46393,8.841201489,8.045250735
-46396,5.797564035,8.204750477
-46395,6.753952558,8.360916716
-46392,9.710367258,8.513784653
-46395,6.666808336,8.66338894
-46386,15.62327599,8.809763526
-46393,8.579770427,8.952941506
-46392,9.536291838,9.092954983
-46394,7.49284042,9.229834937
-46391,10.44941637,9.363611102
-46395,6.406019885,9.49431185
-46388,13.36265116,9.621964092
-46396,5.319310379,9.74659318
-46390,11.27599775,9.868222819
-46391,10.23271345,9.986874998
-46398,3.189457672,10.10256992
-46390,11.14623061,10.21532593
-46394,7.103032458,10.3251595
-46390,11.05986339,10.43208517
-46392,9.01672361,10.53611551
-46391,9.973613291,10.63726113
-46387,13.93053262,10.73553064
-46390,10.88748179,10.83093065
-46387,13.84446097,10.92346582
-46392,8.801470358,11.01313883
-46385,15.75851012,11.09995041
-46394,6.715580445,11.1838994
-46390,10.67268151,11.26498277
-46390,10.62981348,11.34319567
-46392,8.58697655,11.41853151
-46391,9.544170884,11.490982
-46391,9.501396659,11.56053722
-46388,12.45865405,11.62718571
-46389,11.41594322,11.69091456
-46382,18.37326436,11.7517095
-46385,15.33061762,11.80955498
-46389,11.28800318,11.86443429
-46388,12.2454212,11.91632965
-46385,15.20287184,11.96522237
-46384,16.16035529,12.01109289
-46389,11.11787168,12.05392098
-46391,9.075421196,12.09368582
-46390,10.03300399,12.13036614
-46386,13.99062022,12.16394035
-46385,14.94827004,12.19438669
-46393,6.905953612,12.22168334
-46389,10.86367109,12.24580859
-46382,17.82142264,12.26674097
-46390,9.779208396,12.28445939
-46386,13.73702852,12.29894328
-46389,10.69488317,12.31017275
-46388,11.65277248,12.31812872
-46389,10.6106966,12.32279307
-46391,8.568655696,12.3241488
-46386,13.5266499,12.32218016
-46386,13.48467935,12.31687278
-46385,14.44274421,12.30821384
-46386,13.4008446,12.29619222
-46386,13.35898068,12.28079857
-46389,10.31715259,12.26202554
-46389,10.27536045,12.23986785
-46390,9.233604415,12.21432243
-46385,14.19188461,12.18538859
-46388,11.15020119,12.15306809
-46389,10.10855426,12.11736528
-46388,11.06694398,12.07828724
-46386,13.02537046,12.03584386
-46387,11.98383385,11.99004797
-46391,7.94233427,11.94091542
-46385,13.90087185,11.88846523
-46386,12.85944672,11.83271959
-46392,6.818058998,11.77370405
-46389,9.776708818,11.71144753
-46386,12.7353963,11.64598242
-46387,11.69412157,11.57734466
-46390,8.652884754,11.50557377
-46388,10.61168596,11.43071292
-46390,8.570525325,11.352809
-46390,8.529402955,11.27191263
-46387,11.48831897,11.18807819
-46387,11.44727349,11.10136388
-46392,6.406266637,11.0118317
-46387,11.36529852,10.91954748
-46386,12.32436925,10.82458088
-46388,10.28347894,10.72700537
-46391,7.242627707,10.62689822
-46387,11.20181566,10.52434049
-46389,9.161042914,10.41941696
-46383,15.12030957,10.31221615
-46389,9.079615745,10.20283019
-46387,11.03896154,10.09135482
-46388,9.998347059,9.977889317
-46385,12.95777241,9.862536367
-46394,3.917237699,9.745402035
-46391,6.876743025,9.62659564
-46388,9.836288491,9.506229655
-46386,11.7958742,9.384419594
-46385,12.75550025,9.261283888
-46389,8.715166736,9.136943753
-46388,9.674873764,9.011523051
-46388,9.634621428,8.885148138
-46383,14.59440982,8.757947712
-46389,8.554239047,8.630052643
-46390,7.514109191,8.501595802
-46392,5.474020348,8.37271188
-46387,10.43397261,8.243537203
-46385,12.39396607,8.11420953
-46389,8.354000819,7.98486786
-46391,6.314076944,7.855652218
-46391,6.274194534,7.726703444
-46393,4.234353677,7.598162971
-46391,6.194554461,7.470172603
-46389,8.154796971,7.342874286
-46391,6.115081295,7.216409869
-46389,8.075407517,7.090920875
-46394,3.035775721,6.966548252
-46391,5.996185992,6.843432133
-46390,6.956638414,6.721711591
-46390,6.917133068,6.601524389
-46394,2.877670038,6.483006732
-46395,1.838249404,6.366293017
-46394,2.798871249,6.251515584
-46388,8.759535652,6.138804466
-46388,8.720242695,6.028287139
-46388,8.680992457,5.920088282
-46384,12.64178502,5.814329526
-46389,7.602620453,5.711129218
-46394,2.563498841,5.610602179
-46390,6.524420259,5.512859478
-46390,6.485384782,5.418008198
-46397,-0.553607515,5.326151216
-46392,4.407443442,5.237386987
-46394,2.368537728,5.151809335
-46391,5.329675417,5.06950725
-46391,5.290856583,4.990564697
-46390,6.252081298,4.915060429
-46394,2.213349636,4.843067812
-46390,6.174661668,4.774654661
-46391,5.136017467,4.709883082
-46392,4.097417103,4.648809331
-46390,6.058860647,4.591483683
-46393,3.020348169,4.537950304
-46389,6.98187974,4.488247154
-46388,7.943455427,4.442405883
-46394,1.905075301,4.400451756
-46389,6.866739427,4.36240358
-46388,7.828447875,4.328273657
-46389,6.790200711,4.298067737
-46393,2.751998001,4.271785001
-46393,2.71383981,4.249418047
-46396,-0.324273795,4.230952898
-46385,10.63765725,4.216369021
-46392,3.599633006,4.205639366
-46392,3.561653542,4.198730418
-46393,2.52371892,4.19560226
-46393,2.485829202,4.196208662
-46386,9.447984451,4.200497176
-46390,5.41018473,4.208409253
-46392,3.3724301,4.219880367
-46394,1.334720622,4.234840166
-46392,3.297056358,4.253212625
-46395,0.259437366,4.274916225
-46391,4.221863709,4.299864137
-46388,7.184335445,4.327964426
-46393,2.146852634,4.359120267
-46395,0.109415335,4.393230171
-46393,2.072023608,4.430188229
-46393,2.03467751,4.469884363
-46391,3.9973771,4.512204594
-46391,3.960122436,4.557031313
-46392,2.922913576,4.60424357
-46394,0.885750578,4.653717368
-46394,0.848633498,4.705325971
-46386,8.811562394,4.75894021
-46394,0.774537321,4.81442881
-46388,6.737558337,4.871658709
-46391,3.700625497,4.930495398
-46389,5.663738856,4.990803252
-46380,14.62689847,5.052445873
-46392,2.590104389,5.115286436
-46388,6.553356671,5.179188029
-46393,1.516655366,5.244014009
-46385,9.480000527,5.309628342
-46386,8.443392204,5.375895953
-46390,4.406830449,5.442683072
-46388,6.370315312,5.509857571
-46392,2.333846841,5.577289309
-46385,9.297425086,5.644850461
-46389,5.261050096,5.712415847
-46394,0.224721917,5.779863251
-46386,8.188440597,5.847073738
-46389,5.152206184,5.913931955
-46384,10.11601872,5.980326427
-46393,1.079878258,6.046149839
-46390,4.043784836,6.111299311
-46390,4.007738501,6.175676654
-46386,7.971739298,6.239188621
-46386,7.935787268,6.301747135
-46391,2.899882457,6.363269508
-46386,7.864024905,6.423678642
-46384,9.828214654,6.482903213
-46385,8.792451746,6.540877843
-46388,5.756736219,6.597543243
-46391,2.721068115,6.652846353
-46386,7.68544747,6.706740448
-46381,12.64987432,6.759185237
-46387,6.614348713,6.810146936
-46388,5.578870674,6.85959832
-46383,10.54344024,6.907518762
-46385,8.508057453,6.953894244
-46385,8.47272234,6.998717349
-46390,3.437434936,7.041987239
-46387,6.402195275,7.083709602
-46389,4.367003386,7.123896587
-46383,10.3318593,7.162566716
-46385,8.296763055,7.199744771
-46387,6.261714672,7.23546167
-46388,5.226714183,7.269754314
-46389,4.191761617,7.302665424
-46389,4.156857001,7.33424335
-46386,7.122000363,7.364541867
-46385,8.087191729,7.393619953
-46385,8.052431125,7.42154155
-46386,7.017718577,7.448375302
-46381,11.98305411,7.474194288
-46388,4.948437746,7.499075731
-46388,4.913869509,7.523100697
-46387,5.879349421,7.546353779
-46385,7.844877504,7.56892277
-46385,7.810453778,7.590898322
-46386,6.776078264,7.612373599
-46384,8.741750981,7.633443915
-46388,4.707471948,7.654206367
-46381,11.67324118,7.67475946
-46388,4.639058703,7.695202729
-46386,6.604924525,7.715636347
-46383,9.570838664,7.736160741
-46388,4.536801136,7.756876198
-46386,6.502811954,7.777882469
-46381,11.46887113,7.799278381
-46388,4.434978683,7.82116144
-46388,4.401134619,7.843627444
-46382,10.36733895,7.866770097
-46383,9.333591693,7.890680629
-46384,8.29989285,7.915447418
-46385,7.266242434,7.941155628
-46381,11.23264045,7.967886848
-46383,9.199086913,7.995718747
-46377,15.16558182,8.024724734
-46384,8.132125183,8.054973635
-46384,8.098717002,8.086529386
-46388,4.065357282,8.119450729
-46381,11.03204602,8.153790941
-46382,9.998783232,8.189597561
-46383,8.965568905,8.226912153
-46385,6.932403042,8.26577007
-46380,11.89928564,8.306200252
-46383,8.866216708,8.348225036
-46382,9.833196231,8.391859987
-46383,8.800224209,8.437113756
-46381,10.76730064,8.483987951
-46384,7.734425509,8.532477044
-46388,3.701598819,8.582568286
-46386,5.66882056,8.634241657
-46384,7.636090722,8.687469833
-46387,4.603409297,8.742218182
-46380,11.57077628,8.798444779
-46384,7.53819165,8.85610045
-46387,4.505655407,8.915128835
-46383,8.473167535,8.97546648
-46386,5.440728022,9.037042952
-46383,8.408336855,9.09978097
-46383,8.375994021,9.163596573
-46381,10.3436995,9.228399299
-46385,6.31145329,9.294092387
-46384,7.279255362,9.36057301
-46383,8.247105704,9.42773252
-46386,5.215004297,9.495456714
-46382,9.182951123,9.563626122
-46382,9.150946163,9.632116317
-46382,9.118989397,9.700798231
-46385,6.087080803,9.769538499
-46377,14.05522036,9.838199814
-46381,10.02340805,9.906641297
-46379,11.99164384,9.974718878
-46378,12.95992771,10.04228569
-46380,10.92825963,10.10919249
-46381,9.896639585,10.17528803
-46383,7.865067534,10.24041956
-46381,9.833543453,10.30443316
-46379,11.80206731,10.36717425
-46378,12.77063907,10.42848801
-46383,7.739258712,10.48821982
-46382,8.707926192,10.54621568
-46380,10.67664148,10.6023227
-46381,9.645404539,10.65638952
-46377,13.61421533,10.70826673
-46380,10.58307383,10.75780734
-46381,9.551979978,10.80486718
-46378,12.52093375,10.84930536
-46379,11.4899351,10.89098465
-46381,9.458983989,10.92977189
-46379,11.42808037,10.96553839
-46383,7.397224204,10.99816034
-46383,7.366415441,11.02751911
-46377,13.33565404,11.05350168
-46381,9.304939947,11.07600093
-46376,14.27427312,11.09491597
-46377,13.24365351,11.11015246
-46376,14.21308106,11.12162289
-46381,9.182555732,11.12924684
-46377,13.15207746,11.13295122
-46377,13.1216462,11.13267051
-46371,19.09126188,11.12834697
-46380,10.06092447,11.11993079
-46378,12.03063389,11.10738028
-46382,8.000390081,11.09066198
-46379,10.97019299,11.0697508
-46378,11.94004256,11.04463009
-46378,11.90993872,11.01529169
-46379,10.87988141,10.98173598
-46377,12.84987056,10.94397192
-46386,3.819906115,10.902017
-46382,7.789987997,10.8558972
-46381,8.760116143,10.80564699
-46379,10.73029048,10.75130916
-46381,8.700510949,10.69293479
-46375,14.67077747,10.63058305
-46386,3.641089974,10.5643211
-46378,11.61144839,10.49422386
-46375,14.58185264,10.42037385
-46377,12.55230266,10.34286095
-46381,8.522798366,10.26178213
-46379,10.49333968,10.17724124
-46382,7.463926532,10.08934867
-46380,9.434558836,9.998221061
-46379,10.40523652,9.903981012
-46381,8.375959489,9.806756705
-46382,7.346727675,9.706681569
-46381,8.317540992,9.603893904
-46378,11.28839936,9.498536501
-46380,9.259302683,9.390756249
-46379,10.23025089,9.280703722
-46376,13.20124389,9.16853277
-46381,8.172281588,9.054400091
-46383,6.143363907,8.938464798
-46382,7.114490754,8.820887983
-46384,5.085662038,8.701832274
-46380,9.05687767,8.581461387
-46382,7.028137557,8.45993968
-46378,10.99944161,8.337431705
-46379,9.970789733,8.214101758
-46382,6.942181833,8.090113435
-46384,4.913617817,7.96562919
-46377,11.88509759,7.840809896
-46384,4.856621052,7.715814415
-46382,6.828188109,7.590799173
-46377,11.79979866,7.465917747
-46381,7.771452615,7.341320456
-46382,6.743149867,7.21715397
-46380,8.714890317,7.093560924
-46384,4.686673864,6.970679554
-46382,6.658500407,6.848643336
-46379,9.630369844,6.727580653
-46385,3.602282071,6.607614466
-46378,10.57423699,6.488862014
-46380,8.546234481,6.371434523
-46383,5.518274454,6.255436934
-46386,2.490356797,6.140967661
-46382,6.462481404,6.028118357
-46387,1.434648168,5.916973704
-46383,5.40685698,5.80761123
-46382,6.379107734,5.700101145
-46387,1.351400321,5.594506189
-46386,2.323734631,5.490881524
-46387,1.296110556,5.389274626
-46379,9.268527985,5.289725215
-46381,7.24098681,5.192265202
-46384,4.213486918,5.096918661
-46387,1.1860282,5.003701824
-46381,7.158610544,4.912623095
-46385,3.131233837,4.823683092
-46381,7.103897968,4.736874712
-46382,6.076602822,4.652183209
-46379,9.049348286,4.569586309
-46385,3.022134247,4.489054327
-46382,5.994960588,4.410550327
-46384,3.967827195,4.334030279
-46386,1.940733951,4.259443258
-46386,1.91368074,4.186731642
-46383,4.886667445,4.115831342
-46380,7.859693949,4.046672043
-46386,1.832760135,3.979177461
-46390,-2.194134116,3.91326562
-46386,1.779011079,3.848849142
-46385,2.7521956,3.785835542
-46382,5.72541933,3.724127554
-46385,2.698682149,3.663623447
-46382,5.671983939,3.60421737
-46386,1.645324579,3.545799696
-46381,6.61870395,3.488257375
-46385,2.592121931,3.4314743
-46383,4.565578401,3.37533167
-46382,5.539073238,3.319708368
-46389,-1.487393679,3.264481338
-46385,2.486177529,3.209525958
-46384,3.459786737,3.154716429
-46380,7.433433825,3.099926153
-46384,3.407118668,3.04502811
-46386,1.380841144,2.989895243
-46385,2.354601128,2.93440083
-46385,2.328398496,2.878418856
-46384,3.302233125,2.82182438
-46384,3.276104889,2.764493893
-46383,4.250013663,2.706305677
-46384,3.223959322,2.647140143
-46385,2.19794174,2.586880172
-46384,3.171960792,2.525411439
-46385,2.14601635,2.462622728
-46383,4.120108288,2.398406238
-46383,4.09423648,2.332657873
-46388,-0.931599203,2.26527752
-46387,0.042601113,2.196169314
-46385,2.016837299,2.125241891
-46388,-1.008890772,2.05240862
-46385,1.965416772,1.977587823
-46381,5.939759803,1.900702983
-46387,-0.085861807,1.82168293
-46388,-1.111448187,1.74046201
-46385,1.863000535,1.656980244
-46386,0.837484229,1.571183462
-46385,1.812002768,1.483023425
-46383,3.786556022,1.392457925
-46382,4.761143861,1.299450874
-46389,-2.264233842,1.203972368
-46384,2.71042278,1.105998738
-46387,-0.314886401,1.005512582
-46382,4.659838485,0.902502782
-46382,4.634597307,0.796964501
-46387,-0.390610065,0.688899162
-46385,1.584216238,0.578314416
-46387,-0.440923915,0.465224087
-46389,-2.466030656,0.349648106
-46387,-0.491104115,0.231612428
-46381,5.483855576,0.111148932
-46383,3.458848286,-0.011704693
-46386,0.433873884,-0.136905073
-46386,0.408932239,-0.26440329
-46391,-4.615976783,-0.394145038
-46387,-0.640853312,-0.526070788
-46393,-6.665697481,-0.660115966
-46382,4.309490579,-0.796211144
-46389,-2.715289263,-0.934282238
-46389,-2.740037138,-1.074250719
-46384,2.235246823,-1.216033831
-46384,2.210562488,-1.35954482
-46389,-2.814090274,-1.504693167
-46389,-2.838711593,-1.651384831
-46386,0.136698399,-1.7995225
-46391,-4.887860429,-1.949005841
-46392,-5.912388208,-2.099731762
-46383,3.063114932,-2.251594674
-46391,-4.961351139,-2.404486758
-46392,-5.985786551,-2.558298237
-46393,-7.010191434,-2.712917641
-46389,-3.034565917,-2.86823209
-46393,-7.058910129,-3.024127559
-46390,-4.083224198,-3.180489158
-46387,-1.107508251,-3.337201401
-46389,-3.131762417,-3.494148485
-46393,-7.155986822,-3.651214553
-46389,-3.180181592,-3.80828397
-46392,-6.204346855,-3.965241583
-46389,-3.228482736,-4.121972989
-46391,-5.25258936,-4.278364788
-46394,-8.276666853,-4.434304842
-46394,-8.300715338,-4.589682522
-46389,-3.324734941,-4.744388952
-46388,-2.348725783,-4.898317251
-46387,-1.372687988,-5.05136276
-46389,-3.396621678,-5.203423273
-46392,-6.420526975,-5.354399252
-46386,-0.444404003,-5.504194044
-46390,-4.468252881,-5.652714077
-46383,2.507926268,-5.799869067
-46388,-2.515866677,-5.945572196
-46393,-7.539631837,-6.089740301
-46394,-8.563369332,-6.232294038
-46392,-6.587079284,-6.373158048
-46393,-7.610761812,-6.512261111
-46389,-3.634417035,-6.649536287
-46393,-7.658045071,-6.784921053
-46393,-7.681646038,-6.918357426
-46391,-5.705220053,-7.04979208
-46399,-13.72876723,-7.179176448
-46395,-9.752287693,-7.30646682
-46391,-5.775781549,-7.431624429
-46392,-6.799248913,-7.55461552
-46396,-10.8226899,-7.675411419
-46394,-8.846104621,-7.793988588
-46393,-7.869493188,-7.910328664
-46392,-6.892855713,-8.024418495
-46393,-7.916192304,-8.136250161
-46391,-5.939503071,-8.24582099
-46392,-6.962788123,-8.353133551
-46396,-10.98604757,-8.458195652
-46397,-12.00928151,-8.561020318
-46390,-5.032490062,-8.661625758
-46394,-9.055673324,-8.760035325
-46392,-7.078831401,-8.856277465
-46390,-5.101964399,-8.950385652
-46395,-10.12507242,-9.042398317
-46388,-3.148155566,-9.13235876
-46392,-7.171213939,-9.22031506
-46394,-9.194247642,-9.306319967
-46396,-11.21725677,-9.390430788
-46393,-8.240241436,-9.472709259
-46395,-10.26320173,-9.553221411
-46395,-10.28613774,-9.632037421
-46395,-10.30904958,-9.709231457
-46392,-7.331937338,-9.784881514
-46399,-14.35480111,-9.85906923
-46391,-6.377640993,-9.931879709
-46390,-5.400457077,-10.00340132
-46397,-12.42324946,-10.07372548
-46398,-13.44601822,-10.14294648
-46392,-7.468763461,-10.21116121
-46392,-7.491485269,-10.27846896
-46393,-8.514183733,-10.34497117
-46396,-11.53685894,-10.41077118
-46395,-10.55951098,-10.47597396
-46395,-10.58213993,-10.5406859
-46393,-8.604745889,-10.60501445
-46396,-11.62732893,-10.66906792
-46393,-8.649889145,-10.73295516
-46397,-12.67242661,-10.79678526
-46392,-7.694941406,-10.86066728
-46400,-15.71743362,-10.92470991
-46397,-12.73990332,-10.98902121
-46393,-8.762350594,-11.05370824
-46396,-11.78477552,-11.11887682
-46395,-10.80717816,-11.18463112
-46398,-13.8295586,-11.25107341
-46394,-9.85191692,-11.3183037
-46396,-11.87425318,-11.38641943
-46391,-6.896567456,-11.45551514
-46395,-10.91885982,-11.52568214
-46399,-14.94113034,-11.59700819
-46397,-12.96337908,-11.66957715
-46397,-12.98560612,-11.74346873
-46395,-11.00781151,-11.81875808
-46400,-16.02999533,-11.89551554
-46399,-15.05215763,-11.97380631
-46393,-9.074298484,-12.05369014
-46397,-13.09641795,-12.13522104
-46397,-13.11851608,-12.21844701
-46397,-13.14059294,-12.30340971
-46400,-16.16264858,-12.39014425
-46397,-13.18468307,-12.47867887
-46399,-15.20669645,-12.56903473
-46398,-14.22868879,-12.66122565
-46396,-12.25066012,-12.75525789
-46394,-10.27261051,-12.85112997
-46401,-17.29454,-12.94883239
-46393,-9.316448635,-13.04834754
-46395,-11.33833647,-13.14964948
-46399,-15.36020355,-13.25270382
-46398,-14.38204991,-13.35746754
-46394,-10.40387561,-13.46388896
-46393,-9.425680675,-13.57190755
-46394,-10.44746516,-13.68145394
-46393,-9.469229091,-13.79244983
-46398,-14.49097252,-13.90480793
-46392,-8.512695475,-14.01843203
-46395,-11.534398,-14.13321693
-46392,-8.556080128,-14.24904851
-46396,-12.5777419,-14.3658038
-46397,-13.59938333,-14.48335104
-46397,-13.62100448,-14.6015498
-46398,-14.64260536,-14.72025108
-46396,-12.664186,-14.83929753
-46393,-9.685746446,-14.95852353
-46401,-17.70728671,-15.07775548
-46391,-7.728806827,-15.19681197
-46402,-18.75030682,-15.31550406
-46395,-11.77178671,-15.43363554
-46398,-14.79324652,-15.55100322
-46401,-17.81468627,-15.66739727
-46401,-17.83610599,-15.78260154
-46401,-17.85750569,-15.89639393
-46403,-19.87888538,-16.00854682
-46404,-20.90024509,-16.11882739
-46406,-22.92158482,-16.22699813
-46402,-18.94290459,-16.33281726
-46399,-15.9642044,-16.43603918
-46401,-17.98548426,-16.53641497
-46405,-22.00674419,-16.6336929
-46401,-18.02798417,-16.72761893
-46399,-16.04920421,-16.81793724
-46401,-18.07040432,-16.90439082
-46398,-15.09158448,-16.98672196
-46402,-19.1127447,-17.06467288
-46405,-22.13388497,-17.13798626
-46395,-12.15500529,-17.20640587
-46396,-13.17610564,-17.26967715
-46402,-19.19718602,-17.3275478
-46399,-16.21824641,-17.37976839
-46395,-12.23928681,-17.42609298
-46403,-20.26030719,-17.46627971
-46398,-15.28130754,-17.50009142
-46399,-16.30228784,-17.52729627
-46401,-18.32324807,-17.54766828
-46399,-16.34418822,-17.56098803
-46395,-12.36510826,-17.56704313
-46399,-16.38600816,-17.5656289
-46398,-15.4068879,-17.55654886
-46400,-17.42774746,-17.53961537
-46398,-15.4485868,-17.51465009
-46400,-17.46940589,-17.48148456
-46400,-17.49020471,-17.4399607
-46400,-17.51098321,-17.38993128
-46399,-16.53174137,-17.33126042
-46397,-14.55247915,-17.26382402
-46397,-14.5731965,-17.18751022
-46399,-16.5938934,-17.10221973
-46396,-13.6145698,-17.00786629
-46395,-12.63522565,-16.90437695
-46392,-9.655860912,-16.79169243
-46396,-13.67647554,-16.6697674
-46399,-16.6970695,-16.53857072
-46400,-17.71764272,-16.39808569
-46400,-17.73819517,-16.24831022
-46397,-14.7587268,-16.089257
-46400,-17.77923755,-15.92095365
-46398,-15.79972736,-15.74344275
-46395,-12.82019619,-15.55678193
-46399,-16.84064397,-15.3610439
-46394,-11.86107065,-15.15631639
-46393,-10.88147617,-14.9427021
-46400,-17.90186047,-14.72031865
-46399,-16.92222348,-14.48929837
-46391,-8.942565136,-14.24978819
-46400,-17.96288538,-14.00194941
-46394,-11.98318415,-13.74595744
-46394,-12.00346136,-13.48200153
-46399,-17.02371696,-13.21028448
-46396,-14.04395088,-12.93102222
-46397,-15.06416303,-12.64444348
-46392,-10.08435335,-12.35078932
-46391,-9.104521759,-12.05031272
-46390,-8.124668189,-11.74327805
-46393,-11.14479256,-11.42996056
-46392,-10.16489479,-11.11064584
-46396,-14.18497481,-10.78562923
-46393,-11.20503254,-10.45521522
-46392,-10.22506789,-10.11971682
-46394,-12.24508078,-9.779454885
-46396,-14.26507114,-9.434757463
-46395,-13.28503887,-9.085959082
-46389,-7.304983894,-8.733400038
-46394,-12.32490612,-8.377425662
-46395,-13.34480547,-8.018385569
-46396,-14.36468185,-7.656632904
-46390,-8.384535174,-7.292523567
-46390,-8.404365345,-6.926415437
-46387,-5.424172273,-6.55866759
-46389,-7.443955868,-6.18963951
-46387,-5.463716035,-5.819690302
-46388,-6.483452682,-5.449177902
-46382,-0.503165713,-5.078458298
-46385,-3.522855035,-4.707884746
-46383,-1.542520552,-4.337807008
-46386,-4.56216217,-3.968570584
-46387,-5.581779792,-3.60051597
-46385,-3.601373323,-3.233977926
-46385,-3.620942666,-2.869284758
-46385,-3.640487726,-2.506757628
-46384,-2.660008406,-2.146709871
-46384,-2.679504607,-1.789446353
-46381,0.301023767,-1.435262838
-46382,-0.718423187,-1.084445397
-46384,-2.737845369,-0.73726983
-46383,-1.757242684,-0.394001136
-46384,-2.776615032,-0.054893001
-46382,-0.795962315,0.279812669
-46384,-2.815284436,0.609886192
-46380,1.165418704,0.935110503
-46379,2.146147204,1.255281518
-46372,9.126901162,1.57020846
-46375,6.107680675,1.879714142
-46375,6.088485843,2.183635206
-46376,5.06931676,2.48182233
-46375,6.050173524,2.774140383
-46377,4.031056229,3.060468548
-46383,-1.988035028,3.340700391
-46371,9.992899846,3.6147439
-46377,3.973860946,3.882521471
-46376,4.954848366,4.143969857
-46378,2.9358622,4.399040075
-46374,6.916902539,4.647697271
-46376,4.897969477,4.889920539
-46376,4.879063106,5.125702714
-46374,6.860183516,5.355050107
-46373,7.841330798,5.577982215
-46374,6.822505043,5.794531391
-46373,7.80370634,6.004742478
-46377,3.784934777,6.208672405
-46375,5.766190442,6.406389753
-46373,7.747473424,6.597974296
-46372,8.728783807,6.783516496
-46372,8.71012168,6.963116991
-46369,11.69148713,7.136886038
-46380,0.67288023,7.304942945
-46369,11.65430108,7.467415474
-46371,9.635749746,7.624439232
-46373,7.617226323,7.776157029
-46369,11.59873089,7.922718243
-46372,8.580263518,8.064278148
-46375,5.561824296,8.200997248
-46368,12.5434133,8.333040599
-46373,7.525030603,8.460577114
-46376,4.506676286,8.583778879
-46374,6.488350424,8.702820459
-46370,10.47005309,8.817878204
-46371,9.451784363,8.929129558
-46370,10.43354431,9.036752381
-46375,5.41533301,9.140924264
-46370,10.39715053,9.24182187
-46372,8.378996942,9.339620268
-46372,8.360872316,9.4344923
-46371,9.342776721,9.52660795
-46369,11.32471023,9.616133734
-46372,8.306672897,9.703232116
-46370,10.2886648,9.788060933
-46372,8.270686002,9.870772857
-46368,12.25273657,9.951514873
-46372,8.234816555,10.03042778
-46368,12.21692603,10.10764574
-46375,5.199065059,10.18329581
-46375,5.181233695,10.25749759
-46373,7.163432,10.33036277
-46375,5.145660034,10.40199488
-46371,9.127917854,10.47248888
-46377,3.110205519,10.54193098
-46370,10.09252309,10.61039833
-46378,2.07487061,10.67795885
-46373,7.057248149,10.74467104
-46377,3.039655756,10.81058385
-46376,4.022093488,10.87573662
-46371,9.004561398,10.94015894
-46367,12.98705954,11.00387071
-46370,9.969587967,11.06688208
-46367,12.95214673,11.12919354
-46368,11.93473588,11.19079598
-46370,9.917355469,11.25167082
-46368,11.90000554,11.31179014
-46369,10.88268615,11.37111688
-46369,10.86539733,11.42960504
-46370,9.848139139,11.48719996
-46363,16.83091161,11.54383852
-46372,7.8137148,11.59944955
-46367,12.79654874,11.65395406
-46366,13.77941347,11.70726567
-46366,13.76230903,11.75929097
-46364,15.74523546,11.80992991
-46366,13.72819279,11.85907628
-46369,10.71118107,11.90661808
-46366,13.69420032,11.95243807
-46366,13.67725058,11.99641421
-46364,15.66033188,12.03842015
-46364,15.64344424,12.07832578
-46364,15.6265877,12.11599772
-46368,11.60976228,12.1512999
-46363,16.59296801,12.18409402
-46367,12.57620491,12.2142402
-46365,14.55947301,12.24159744
-46361,18.54277232,12.26602425
-46363,16.52610286,12.28737913
-46367,12.50946466,12.30552119
-46365,14.49285773,12.32031066
-46364,15.47628208,12.33160945
-46370,9.459737728,12.33928167
-46363,16.44322469,12.34319419
-46367,12.42674296,12.34321713
-46373,6.410292572,12.33922439
-46364,15.39387352,12.33109412
-46370,9.377485811,12.31870924
-46367,12.36112945,12.30195787
-46365,14.34480445,12.28073378
-46372,7.328510815,12.25493685
-46370,9.312248539,12.22447346
-46367,12.29601763,12.18925687
-46365,14.27981808,12.14920759
-46375,4.2636499,12.10425376
-46367,12.24751308,12.05433143
-46367,12.23140763,11.99938489
-46368,11.21533352,11.9393669
-46364,15.19929078,11.87423899
-46368,11.18327938,11.80397167
-46368,11.16729931,11.72854459
-46369,10.15135058,11.64794674
-46368,11.13543317,11.56217662
-46370,9.119547069,11.47124227
-46368,11.10369227,11.37516145
-46368,11.08786875,11.27396166
-46368,11.07207651,11.16768015
-46368,11.05631552,11.05636398
-46366,13.04058577,10.94006997
-46370,9.024887254,10.81886465
-46367,12.00921994,10.69282421
-46371,7.99358381,10.56203438
-46374,4.977978847,10.42659031
-46374,4.96240503,10.28659647
-46376,2.946862336,10.14216639
-46370,8.931350744,9.993422565
-46367,11.91587023,9.840496169
-46371,7.90042077,9.683526856
-46371,7.88500234,9.522662487
-46367,11.86961492,9.358058863
-46365,13.85425847,9.189879423
-46371,7.838932974,9.018294935
-46368,10.8236384,8.843483167
-46369,9.808374719,8.66562854
-46365,13.7931419,8.484921771
-46370,8.777939911,8.3015595
-46369,9.762768719,8.115743901
-46378,0.74762829,7.927682292
-46372,6.73251859,7.737586724
-46372,6.717439583,7.545673564
-46373,5.702391234,7.352163076
-46366,12.68737351,7.157278991
-46373,5.672386364,6.961248066
-46373,5.657429767,6.764299648
-46377,1.642503678,6.56666523
-46376,2.627608057,6.368578005
-46377,1.612742865,6.170272418
-46373,5.597908063,5.97198372
-46374,4.583103609,5.773947522
-46373,5.568329464,5.576399351
-46369,9.553585586,5.379574206
-46377,1.538871934,5.183706127
-46374,4.524188465,4.989027754
-46372,6.509535136,4.79576991
-46375,3.494911905,4.604161173
-46375,3.480318728,4.41442747
-46373,5.46575556,4.22679167
-46372,6.451222356,4.041473189
-46371,7.436719072,3.858687608
-46368,10.42224566,3.6786463
-46374,4.407802078,3.501556062
-46372,6.393388274,3.327618771
-46378,0.379004202,3.157031043
-46375,3.364649813,2.98998391
-46377,1.350325058,2.82666251
-46372,6.336029888,2.667245786
-46371,7.321764255,2.511906213
-46374,4.307528106,2.360809523
-46383,-4.706678606,2.214114459
-46379,-0.720855934,2.071972539
-46378,0.264996072,1.934527836
-46377,1.250877361,1.801916778
-46377,1.236787882,1.674267959
-46374,4.222727586,1.551701972
-46383,-4.79130358,1.434331257
-46375,3.194694333,1.322259964
-46376,2.180721276,1.215583839
-46376,2.166777195,1.114390118
-46377,1.15286204,1.018757449
-46375,3.138975759,0.928755822
-46380,-1.8748817,0.844446521
-46379,-0.888710389,0.765882091
-46378,0.09748964,0.693106323
-46378,0.083718334,0.626154255
-46378,0.069975643,0.565052189
-46377,1.056261514,0.509817729
-46374,4.042575894,0.460459824
-46373,5.028918731,0.416978838
-46375,3.015289974,0.379366631
-46377,1.001689567,0.347606656
-46376,1.988117459,0.321674066
-46376,1.974573596,0.301535844
-46377,0.961057923,0.28715094
-46378,-0.052429612,0.278470424
-46379,-1.065889066,0.275437652
-46379,-1.07932049,0.277988447
-46380,-2.09272394,0.286051285
-46379,-1.106099469,0.299547505
-46375,2.880552868,0.318391514
-46381,-3.132766982,0.342491019
-46378,-0.146059073,0.371747258
-46376,1.840676541,0.406055244
-46376,1.827439807,0.445304019
-46373,4.814230669,0.489376916
-46375,2.801049075,0.538151829
-46377,0.787894969,0.591501485
-46381,-3.225231704,0.649293736
-46376,1.761669002,0.711391838
-46372,5.748597031,0.777654754
-46377,0.735552329,0.847937449
-46379,-1.27746516,0.922091194
-46376,1.709544509,0.999963876
-46377,0.696581279,1.081400304
-46382,-4.316354905,1.166242521
-46373,4.670735902,1.254330123
-46376,1.657853643,1.345500566
-46379,-1.355001736,1.439589488
-46381,-3.367830293,1.536431018
-46380,-2.380632083,1.635858091
-46377,0.606592838,1.737702762
-46380,-2.406155586,1.841796514
-46373,4.581122591,1.947970563
-46375,2.568427312,2.056056164
-46375,2.555758521,2.165884906
-46375,2.543116164,2.277289014
-46378,-0.469499818,2.390101629
-46373,4.51791052,2.504157096
-46376,1.50534712,2.619291241
-46379,-1.507190073,2.73534164
-46374,3.480298882,2.85214788
-46373,4.467813928,2.969551817
-46376,1.455355007,3.087397818
-46373,4.442922063,3.205532999
-46377,0.430515036,3.323807454
-46372,5.418133868,3.442074472
-46369,8.405778501,3.560190745
-46378,-0.606551126,3.678016564
-46370,7.381144928,3.795416006
-46372,5.368866603,3.91225711
-46372,5.356613838,4.028412036
-46376,1.344386572,4.143757223
-46374,3.332184743,4.258173523
-46374,3.320008289,4.371546331
-46372,5.307857148,4.483765699
-46374,3.295731256,4.594726439
-46370,7.283630551,4.704328211
-46374,3.271554968,4.812475602
-46370,7.259504445,4.919078187
-46373,4.247478915,5.024050582
-46373,4.235478313,5.127312483
-46373,4.223502574,5.228788688
-46369,8.211551632,5.328409113
-46371,6.199625418,5.426108789
-46366,11.18772387,5.521827851
-46375,2.175846909,5.615511513
-46371,6.163994476,5.70711003
-46372,5.152166498,5.796578651
-46374,3.140362904,5.883877553
-46372,5.128583625,5.968971777
-46370,7.116828589,6.051831138
-46370,7.105097724,6.132430134
-46373,4.093390958,6.210747842
-46369,8.081708219,6.286767805
-46374,3.070049432,6.360477907
-46373,4.058414524,6.431870241
-46368,9.046803421,6.500940971
-46374,3.035216046,6.567690179
-46372,5.023652325,6.632121711
-46369,8.01211218,6.694243015
-46367,10.00059554,6.75406497
-46367,9.989102315,6.811601712
-46368,8.977632438,6.866870452
-46369,7.966185826,6.919891293
-46367,9.954762398,6.970687038
-46370,6.943362073,7.019283001
-46371,5.931984769,7.065706809
-46374,2.920630404,7.109988207
-46370,6.909298893,7.152158858
-46369,7.897990153,7.192252141
-46373,3.886704099,7.230302955
-46367,9.875440646,7.266347516
-46372,4.864199709,7.300423161
-46372,4.8529812,7.332568148
-46371,5.841785033,7.362821464
-46369,7.83061112,7.391222632
-46370,6.819459372,7.417811521
-46364,12.8083297,7.442628165
-46367,9.797222015,7.465712581
-46367,9.786136225,7.487104594
-46369,7.775072239,7.506843669
-46371,5.764029963,7.524968749
-46367,9.753009305,7.541518098
-46371,5.742010168,7.556529154
-46371,5.731032459,7.570038384
-46369,7.720076081,7.582081159
-46367,9.709140938,7.59269162
-46373,3.698226933,7.601902571
-46368,8.687333966,7.609745366
-46370,6.67646194,7.616249817
-46374,2.665610756,7.621444105
-46374,2.654780312,7.625354702
-46370,6.64397051,7.628006305
-46369,7.633181247,7.629421779
-46364,12.62241242,7.629622111
-46372,4.611663933,7.628626373
-46370,6.600935677,7.626451699
-46367,9.59022755,7.623113266
-46366,10.57953945,7.618624294
-46368,8.568871263,7.612996049
-46369,7.55822289,7.606237863
-46372,4.547594222,7.598357153
-46371,5.536985151,7.589359465
-46371,5.526395568,7.579248514
-46368,8.515825363,7.568026245
-46377,-0.494725573,7.55569289
-46370,6.494742649,7.542247046
-46367,9.484229919,7.527685756
-46372,4.473736124,7.512004596
-46369,7.463261154,7.495197773
-46367,9.452804895,7.477258228
-46369,7.442367233,7.458177746
-46372,4.431948055,7.437947077
-46369,7.421547245,7.416556048
-46368,8.411164688,7.393993698
-46368,8.400800266,7.370248408
-46370,6.390453864,7.345308032
-46366,10.38012536,7.319160035
-46368,8.369814644,7.291791639
-46369,7.359521587,7.263189956
-46363,13.34924607,7.23334214
-46370,6.338987978,7.202235524
-46366,10.32874718,7.169857767
-46370,6.31852356,7.136196994
-46367,9.308316989,7.10124194
-46369,7.298127343,7.064982085
-46368,8.287954497,7.027407792
-46373,3.277798324,6.98851044
-46371,5.267658697,6.948282548
-46369,7.257535487,6.906717903
-46371,5.247428567,6.863811674
-46362,14.23733781,6.819560525
-46367,9.227263079,6.773962721
-46373,3.21720425,6.727018224
-46372,4.207161189,6.678728782
-46376,0.197133763,6.629098015
-46366,10.18712184,6.578131483
-46371,5.177125289,6.525836754
-46370,6.167143974,6.472223458
-46370,6.157177761,6.417303329
-46373,3.147226515,6.361090242
-46373,3.1372901,6.303600238
-46374,2.127368382,6.244851534
-46368,8.117461224,6.184864527
-46369,7.107568489,6.123661788
-46371,5.09769004,6.061268038
-46368,8.087825739,5.997710119
-46372,4.077975447,5.933016954
-46371,5.068139026,5.867219489
-46373,3.058316335,5.800350631
-46369,7.048507234,5.732445174
-46368,8.038711584,5.663539708
-46374,2.028929241,5.593672528
-46372,4.019160065,5.522883522
-46366,10.00940391,5.451214053
-46365,10.99966064,5.378706837
-46371,4.98993011,5.305405802
-46373,2.980212169,5.231355945
-46372,3.970506676,5.156603177
-46370,5.960813485,5.081194163
-46367,8.95113245,5.005176153
-46368,7.941463424,4.928596808
-46372,3.931806259,4.851504015
-46373,2.922160808,4.773945706
-46369,6.912526921,4.695969662
-46369,6.90290445,4.617623323
-46375,0.893293244,4.538953585
-46370,5.883693153,4.460006604
-46373,2.874104027,4.38082759
-46372,3.864525714,4.301460607
-46375,0.854958064,4.221948372
-46369,6.845400924,4.142332048
-46372,3.835854141,4.06265105
-46373,2.826317564,3.982942843
-46375,0.81679104,3.903242752
-46374,1.807274415,3.823583771
-46374,1.797767535,3.743996375
-46375,0.788270247,3.664508349
-46369,6.778782397,3.585144609
-46368,7.769303831,3.505927044
-46374,1.759834395,3.426874355
-46368,7.750373932,3.34800191
-46367,8.740922287,3.269321612
-46373,2.731479303,3.190841764
-46374,1.722044825,3.112566962
-46372,3.712618693,3.034497986
-46370,5.70320075,2.956631715
-46377,-1.306209162,2.878961045
-46381,-5.315611202,2.801474829
-46376,-0.325005528,2.724157823
-46367,8.665607702,2.646990655
-46377,-1.343771672,2.569949804
-46375,0.646856194,2.493007594
-46374,1.637491138,2.416132208
-46378,-2.371866997,2.339287712
-46374,1.618781629,2.262434098
-46371,4.609436857,2.185527347
-46376,-0.399901472,2.1085195
-46373,2.590766483,2.031358755
-46374,1.581440562,1.953989573
-46376,-0.427879396,1.8763528
-46376,-0.43719355,1.798385814
-46375,0.55349794,1.720022676
-46373,2.544194914,1.641194307
-46371,4.534897211,1.561828672
-46366,9.525604671,1.481850983
-46379,-3.483682867,1.40118392
-46374,1.507034436,1.319747854
-46376,-0.502243582,1.2374611
-46373,2.488482917,1.154240167
-46378,-2.520786228,1.070000032
-46372,3.469948821,0.984654413
-46371,4.460687902,0.898116069
-46374,1.451430853,0.810297093
-46377,-1.557822489,0.721109222
-46374,1.432927714,0.630464159
-46372,3.4236813,0.53827389
-46373,2.414438105,0.444451016
-46375,0.405197966,0.348909088
-46374,1.395960721,0.251562946
-46374,1.386726205,0.152329056
-46377,-1.622505744,0.051125855
-46374,1.368264709,-0.052125909
-46378,-2.640962599,-0.157502833
-46378,-2.650187831,-0.265078524
-46374,1.340588848,-0.374923257
-46376,-0.668632725,-0.48710365
-46379,-3.677852712,-0.601682334
-46376,-0.687071277,-0.718717636
-46373,2.303711416,-0.83826327
-46378,-2.705504796,-0.960368033
-46378,-2.714720075,-1.085075516
-46375,0.276065415,-1.212423827
-46380,-4.733148488,-1.342445321
-46377,-1.742361948,-1.475166355
-46374,1.248424874,-1.610607043
-46376,-0.760788185,-1.748781042
-46380,-4.770001288,-1.889695347
-46379,-3.779214597,-2.033350106
-46380,-4.788428273,-2.179738452
-46377,-1.797642478,-2.328846362
-46377,-1.806857373,-2.480652526
-46381,-5.81607312,-2.635128248
-46376,-0.825289879,-2.792237364
-46379,-3.83450781,-2.951936181
-46375,0.156272927,-3.114173447
-46378,-2.85294783,-3.278890336
-46379,-3.862170239,-3.446020462
-46383,-7.87139446,-3.615489923
-46379,-3.880620652,-3.787217355
-46375,0.110151026,-3.96111403
-46379,-3.899079584,-4.137083965
-46381,-5.908312641,-4.315024062
-46380,-4.917548302,-4.494824275
-46378,-2.926786724,-4.676367797
-46382,-6.936028066,-4.859531277
-46376,-0.945272482,-5.044185059
-46380,-4.954520129,-5.230193447
-46380,-4.963771164,-5.417414988
-46379,-3.973025741,-5.60570279
-46385,-9.982284016,-5.794904846
-46378,-2.991546143,-5.984864398
-46382,-7.000812275,-6.175420305
-46383,-8.010082567,-6.366407442
-46380,-5.019357171,-6.557657114
-46383,-8.028636239,-6.748997489
-46381,-6.037919922,-6.940254045
-46379,-4.047208371,-7.131250034
-46387,-12.05650174,-7.321806963
-46380,-5.06580017,-7.511745085
-46385,-10.07510382,-7.700883897
-46381,-6.084412828,-7.889042658
-46382,-7.093727349,-8.076040908
-46378,-3.103047528,-8.261698991
-46390,-15.11237351,-8.445838594
-46381,-6.121705441,-8.628283279
-46384,-9.131043466,-8.808859019
-46380,-5.140387727,-8.987394741
-46385,-10.14973837,-9.163722852
-46383,-8.159095533,-9.337679781
-46388,-13.16845936,-9.509106496
-46387,-12.17782999,-9.677849029
-46389,-14.18720757,-9.843758983
-46381,-6.196592228,-10.00669403
-46381,-6.205984106,-10.16651839
-46385,-10.21538334,-10.32310333
-46385,-10.22479006,-10.47632758
-46384,-9.234204413,-10.62607778
-46384,-9.243626522,-10.77224893
-46382,-7.253056525,-10.91474474
-46386,-11.26249455,-11.05347802
-46386,-11.27194074,-11.18837104
-46383,-8.281395205,-11.31935583
-46386,-11.29085809,-11.44637449
-46382,-7.300329519,-11.56937944
-46386,-11.30980962,-11.68833366
-46392,-17.31929852,-11.80321091
-46387,-12.32879634,-11.91399585
-46384,-9.338303209,-12.02068424
-46385,-10.34781925,-12.12328301
-46387,-12.35734458,-12.22181032
-46383,-8.366879326,-12.31629562
-46388,-13.3764236,-12.40677959
-46382,-7.385977533,-12.49331419
-46389,-14.39554123,-12.57596247
-46385,-10.40511482,-12.65479856
-46387,-12.4146984,-12.72990743
-46383,-8.424292107,-12.80138476
-46390,-15.43389604,-12.86933668
-46390,-15.44351032,-12.93387953
-46384,-9.453135045,-12.99513954
-46384,-9.462770337,-13.05325249
-46386,-11.4724163,-13.10836336
-46388,-13.48207305,-13.16062593
-46390,-15.49174068,-13.21020232
-46389,-14.5014193,-13.25726252
-46389,-14.51110902,-13.30198393
-46391,-16.52080993,-13.34455078
-46386,-11.53052215,-13.38515362
-46390,-15.54024577,-13.4239887
-46389,-14.54998088,-13.4612574
-46393,-18.55972759,-13.49716556
-46387,-12.56948599,-13.53192289
-46393,-18.57925617,-13.56574221
-46390,-15.58903823,-13.59883888
-46393,-18.59883226,-13.63142999
-46390,-15.60863835,-13.66373372
-46391,-16.61845658,-13.69596859
-46392,-17.62828704,-13.72835274
-46386,-11.63812982,-13.76110317
-46385,-10.64798499,-13.79443502
-46389,-14.65785265,-13.82856084
-46388,-13.66773286,-13.8636898
-46387,-12.67762572,-13.90002702
-46388,-13.68753129,-13.93777278
-46386,-11.69744966,-13.97712183
-46386,-11.7073809,-14.01826267
-46391,-16.71732509,-14.06137685
-46389,-14.72728229,-14.10663828
-46390,-15.73725258,-14.1542126
-46387,-12.74723603,-14.20425646
-46390,-15.75723271,-14.25691698
-46384,-9.767242688,-14.31233109
-46387,-12.77726603,-14.37062498
-46390,-15.78730279,-14.43191356
-46389,-14.79735305,-14.49629992
-46388,-13.80741686,-14.56387488
-46393,-18.81749428,-14.63471651
-46386,-11.82758537,-14.70888973
-46386,-11.8376902,-14.78644593
-46388,-13.84780882,-14.86742265
-46384,-9.857941278,-14.95184321
-46389,-14.86808764,-15.03971656
-46381,-6.878247944,-15.13103696
-46385,-10.88842226,-15.22578387
-46390,-15.89861062,-15.32392179
-46393,-18.90881309,-15.42540017
-46391,-16.91902972,-15.5301534
-46387,-12.92926054,-15.63810077
-46392,-17.93950561,-15.74914655
-46391,-16.94976496,-15.86318009
-46389,-14.96003865,-15.98007591
-46393,-18.97032671,-16.09969395
-46384,-9.98062918,-16.22187977
-46389,-14.9909461,-16.34646481
-46387,-13.0012775,-16.47326675
-46387,-13.01162342,-16.60208985
-46390,-16.0219839,-16.73272534
-46389,-15.03235896,-16.86495192
-46389,-15.04274864,-16.9985362
-46388,-14.05315297,-17.13323324
-46389,-15.06357196,-17.26878714
-46393,-19.07400567,-17.40493161
-46390,-16.08445409,-17.54139063
-46394,-20.09491727,-17.67787911
-46390,-16.10539522,-17.8141036
-46391,-17.11588796,-17.949763
-46390,-16.12639551,-18.08454933
-46390,-16.13691788,-18.21814853
-46392,-18.1474551,-18.35024123
-46394,-20.15800718,-18.48050359
-46389,-15.16857412,-18.60860815
-46392,-18.17915594,-18.73422464
-46393,-19.18975264,-18.85702093
-46392,-18.20036424,-18.97666383
-46388,-14.21099074,-19.09282
-46390,-16.22163214,-19.20515687
-46393,-19.23228844,-19.31334347
-46396,-22.24295965,-19.41705136
-46394,-20.25364575,-19.51595552
-46396,-22.26434676,-19.6097352
-46397,-23.27506266,-19.69807479
-46394,-20.28579344,-19.7806647
-46391,-17.2965391,-19.85720218
-46393,-19.30729962,-19.92739215
-46391,-17.31807499,-19.99094801
-46396,-22.32886519,-20.04759242
-46393,-19.33967021,-20.09705803
-46392,-18.35049002,-20.13908825
-46397,-23.36132462,-20.17343794
-46393,-19.37217396,-20.19987403
-46397,-23.38303804,-20.21817626
-46396,-22.39391681,-20.22813765
-46395,-21.40481026,-20.22956518
-46396,-22.41571834,-20.22228025
-46400,-26.42664104,-20.20611915
-46397,-23.4375783,-20.18093358
-46396,-22.4485301,-20.14659096
-46393,-19.45949638,-20.10297485
-46398,-24.47047712,-20.04998522
-46394,-20.48147226,-19.98753875
-46393,-19.49248177,-19.91556902
-46390,-16.50350558,-19.8340267
-46392,-18.51454365,-19.74287965
-46390,-16.52559592,-19.64211303
-46394,-20.53666235,-19.53172931
-46395,-21.54774288,-19.41174826
-46388,-14.55883745,-19.28220686
-46391,-17.56994599,-19.14315924
-46390,-16.58106845,-18.99467646
-46390,-16.59220477,-18.83684636
-46395,-21.60335488,-18.66977327
-46390,-16.61451872,-18.49357776
-46386,-12.62569621,-18.30839624
-46389,-15.6368873,-18.11438067
-46393,-19.64809189,-17.91169807
-46391,-17.65930994,-17.70053011
-46395,-21.67054135,-17.4810726
-46390,-16.68178606,-17.25353495
-46388,-14.69304398,-17.01813964
-46391,-17.70431504,-16.7751216
-46388,-14.71559916,-16.52472762
-46385,-11.72689625,-16.26721566
-46391,-17.73820623,-16.00285419
-46387,-13.74952901,-15.73192152
-46386,-12.76086451,-15.45470503
-46386,-12.77221264,-15.17150047
-46389,-15.78357331,-14.88261118
-46384,-10.79494642,-14.58834733
-46392,-18.80633189,-14.28902515
-46389,-15.81772963,-13.98496612
-46389,-15.82913953,-13.67649617
-46387,-13.84056151,-13.3639449
-46385,-11.85199545,-13.04764476
-46382,-8.863441276,-12.72793025
-46385,-11.87489887,-12.40513711
-46386,-12.88636814,-12.07960156
-46381,-7.897848976,-11.75165944
-46384,-10.90934128,-11.42164551
-46386,-12.92084494,-11.08989264
-46381,-7.932359863,-10.75673107
-46383,-9.943885933,-10.42248768
-46381,-7.955423044,-10.08748524
-46380,-6.966971089,-9.752041763
-46380,-6.978529958,-9.416469797
-46379,-5.990099541,-9.081075781
-46378,-5.001679728,-8.746159424
-46383,-10.01327041,-8.412013106
-46384,-11.02487147,-8.078921304
-46378,-5.0364828,-7.747160061
-46385,-12.04810428,-7.416996473
-46377,-4.059735811,-7.088688217
-46380,-7.071377264,-6.762483108
-46382,-9.083028527,-6.438618695
-46380,-7.094689485,-6.117321887
-46381,-8.10636002,-5.798808619
-46381,-8.118040015,-5.483283556
-46377,-4.129729351,-5.170939827
-46373,-0.14142791,-4.861958807
-46380,-7.153135571,-4.556509925
-46381,-8.164852215,-4.254750518
-46382,-9.176577721,-3.956825723
-46373,-0.188311969,-3.662868396
-46373,-0.200054837,-3.372999084
-46376,-3.211806203,-3.087326021
-46370,2.776434055,-2.805945163
-46376,-3.235333941,-2.528940266
-46374,-1.247110069,-2.256382988
-46375,-2.258894207,-1.988333035
-46374,-1.270686233,-1.724838332
-46371,1.717513977,-1.46593523
-46378,-5.294293457,-1.211648747
-46375,-2.30610841,-0.961992832
-46368,4.68206924,-0.716970664
-46372,0.670239615,-0.476574974
-46373,-0.341597162,-0.240788394
-46374,-1.353440968,-0.009583832
-46376,-3.365291681,0.217075133
-46374,-1.377149177,0.439233833
-46373,-0.389013334,0.656946072
-46373,-0.40088403,0.870273675
-46368,4.587238859,1.079286014
-46368,4.575355456,1.284059522
-46376,-3.436534116,1.484677196
-46370,2.551570264,1.68122809
-46374,-1.460331281,1.873806792
-46368,4.527761372,2.062512902
-46371,1.515848344,2.247450502
-46373,-0.496070243,2.428727618
-46367,5.492005733,2.606455687
-46367,5.480076393,2.780749019
-46373,-0.531858141,2.951724262
-46369,3.456202251,3.11949987
-46376,-3.55574231,3.28419558
-46372,0.432308296,3.445931885
-46373,-0.579645811,3.604829531
-46369,3.408395491,3.761009007
-46370,2.396432321,3.914590062
-46370,2.384464799,4.06569122
-46367,5.372493045,4.214429322
-46366,6.36051718,4.360919075
-46368,4.348537321,4.50527262
-46370,2.336553588,4.64759912
-46364,8.324566098,4.788004365
-46367,5.312574969,4.926590395
-46369,3.300580317,5.063455149
-46364,8.288582261,5.198692134
-46366,6.276580914,5.33239011
-46365,7.264576392,5.464632809
-46368,4.252568811,5.595498674
-46366,6.240558283,5.725060615
-46366,6.228544923,5.853385803
-46369,3.216528842,5.980535477
-46372,0.204510153,6.106564788
-46363,9.192488968,6.231522655
-46361,11.1804654,6.35545166
-46370,2.168439555,6.478387962
-46358,14.15641155,6.600361236
-46365,7.144381484,6.721394638
-46365,7.132349474,6.8415048
-46364,8.120315625,6.960701843
-46364,8.108280043,7.078989419
-46366,6.096242835,7.196364773
-46364,8.084204104,7.312818832
-46364,8.072163955,7.428336315
-46364,8.060122492,7.542895866
-46360,12.04807982,7.656470205
-46364,8.036036033,7.769026301
-46364,8.02399124,7.88052557
-46365,7.011945538,7.990924077
-46367,4.999899026,8.100172774
-46366,5.987851803,8.208217738
-46363,8.975803966,8.315000436
-46366,5.963755613,8.420457995
-46361,10.95170684,8.52452349
-46362,9.939657744,8.627126245
-46367,4.927608417,8.72819214
-46361,10.91555896,8.827643932
-46364,7.90350945,8.925401576
-46362,9.891459995,9.021382564
-46366,5.879410681,9.115502262
-46360,11.8673616,9.207674252
-46362,9.855312835,9.297810676
-46364,7.843264481,9.385822587
-46359,12.83121662,9.471620294
-46363,8.819169352,9.555113711
-46363,8.807122748,9.636212698
-46360,11.7950769,9.714827405
-46368,3.783031886,9.79086861
-46363,8.770987793,9.864248044
-46363,8.758944703,9.934878725
-46357,14.7469027,10.00267526
-46363,8.734861853,10.06755418
-46362,9.722822253,10.12943419
-46364,7.710783973,10.18823651
-46367,4.698747091,10.24388512
-46365,6.686711684,10.296307
-46363,8.674677827,10.34543246
-46360,11.6626456,10.39119526
-46361,10.65061506,10.43353293
-46364,7.638586303,10.47238693
-46365,6.626559388,10.50770283
-46362,9.614534389,10.53943052
-46360,11.60251138,10.56752432
-46360,11.59049042,10.59194315
-46363,8.578471589,10.61265066
-46360,11.56645495,10.6296153
-46356,15.55444057,10.64281043
-46362,9.542428512,10.65221437
-46365,6.530418842,10.6578105
-46357,14.51841162,10.65958723
-46355,16.50640692,10.65753806
-46363,8.494404784,10.65166157
-46360,11.48240528,10.64196139
-46360,11.47040847,10.62844619
-46366,5.458414412,10.61112961
-46362,9.446423155,10.59003022
-46361,10.43443476,10.56517142
-46361,10.42244927,10.53658137
-46359,12.41046676,10.50429284
-46357,14.39848726,10.46834314
-46360,11.38651083,10.42877399
-46364,7.374537525,10.38563132
-46360,11.36256739,10.33896519
-46359,12.35060047,10.28882958
-46359,12.33863681,10.23528222
-46361,10.32667647,10.17838446
-46359,12.31471947,10.11820101
-46358,13.30276587,10.05479981
-46365,6.290815717,9.988251802
-46354,17.27886904,9.918630749
-46359,12.26692588,9.846013007
-46363,8.254986277,9.770477333
-46363,8.243050271,9.692104677
-46359,12.2311179,9.610977967
-46359,12.21918919,9.527181907
-46365,6.20726418,9.440802769
-46365,6.195342907,9.351928184
-46364,7.183425401,9.260646944
-46367,4.171511693,9.167048806
-46364,7.159601815,9.071224292
-46362,9.147695797,8.973264509
-46359,12.13579367,8.873260959
-46361,10.12389546,8.771305369
-46362,9.112001197,8.667489522
-46364,7.100110908,8.561905093
-46360,11.08822462,8.454643502
-46361,10.07634235,8.345795766
-46365,6.064464136,8.235452369
-46369,2.052589991,8.123703136
-46361,10.04071994,8.010637115
-46365,6.028854006,7.896342479
-46363,8.016992209,7.780906427
-46367,4.00513457,7.664415102
-46365,5.993281109,7.546953517
-46366,4.981431846,7.428605496
-46365,5.969586798,7.309453616
-46362,8.957745985,7.18957917
-46364,6.945909424,7.069062137
-46368,2.934077131,6.947981158
-46366,4.922249123,6.826413524
-46364,6.910425415,6.704435181
-46361,9.898606023,6.582120732
-46364,6.886790961,6.459543456
-46364,6.874980242,6.336775336
-46366,4.86317388,6.213887089
-46365,5.851371887,6.09094821
-46372,-1.160425726,5.968027018
-46362,8.827781053,5.845190716
-46364,6.815992234,5.722505446
-46366,4.804207828,5.600036356
-46366,4.792427844,5.477847674
-46368,2.780652291,5.356002781
-46370,0.768881179,5.234564285
-46365,5.757114516,5.113594107
-46370,0.745352308,4.993153561
-46367,3.733594565,4.873303433
-46367,3.721841294,4.754104071
-46367,3.710092502,4.635615462
-46368,2.698348195,4.517897319
-46369,1.68660838,4.401009156
-46362,8.674873063,4.285010367
-46367,3.663142249,4.169960302
-46368,2.651415944,4.055918334
-46366,4.639694153,3.942943925
-46361,9.627976879,3.831096687
-46368,2.616264127,3.720436435
-46361,9.604555899,3.611023237
-46361,9.592852198,3.50291745
-46364,6.581153026,3.396179756
-46365,5.569458383,3.290871191
-46363,7.557768269,3.187053154
-46365,5.546082684,3.084787422
-46372,-1.465598374,2.984136143
-46366,4.522725095,2.885161833
-46364,6.511053087,2.787927351
-46373,-2.500614399,2.692495869
-46365,5.487722635,2.598930839
-46366,4.476064184,2.507295937
-46372,-1.535589753,2.417655007
-46366,4.452760819,2.330071992
-46365,5.441115897,2.244610858
-46366,4.429475477,2.161335501
-46367,3.417839554,2.080309654
-46366,4.406208123,2.001596778
-46369,1.394581179,1.92525995
-46371,-0.617041283,1.851361736
-46365,5.371340729,1.779964061
-46369,1.359727211,1.711128073
-46375,-4.651881845,1.64491399
-46367,3.336513556,1.581380958
-46367,3.324913407,1.520586884
-46367,3.3133177,1.462588276
-46372,-1.69827357,1.407440079
-46369,1.29013959,1.355195497
-46372,-1.721442829,1.305905824
-46372,-1.733020833,1.259620266
-46369,1.25540557,1.21638576
-46371,-0.756163626,1.1762468
-46369,1.232271572,1.139245253
-46369,1.220711156,1.105420186
-46370,0.209155118,1.074807689
-46374,-3.802396547,1.047440699
-46368,2.186056152,1.023348832
-46369,1.174513208,1.00255822
-46367,3.162974614,0.985091348
-46371,-0.848559638,0.970966899
-46366,4.139910445,0.960199611
-46371,-0.871615146,0.952800132
-46371,-0.883136417,0.948774893
-46372,-1.894653378,0.948125983
-46370,0.093833963,0.950851038
-46365,5.082325599,0.956943138
-46369,1.070821522,0.966390718
-46367,3.059321723,0.979177487
-46370,0.047826194,0.995282364
-46370,0.036334926,1.01467942
-46369,1.024847909,1.037337842
-46370,0.013365136,1.063221903
-46372,-1.998113404,1.09229095
-46366,3.990412281,1.124499404
-46369,0.978942183,1.159796782
-46366,3.96747629,1.19812772
-46368,1.956014595,1.239432023
-46371,-1.055442913,1.283644727
-46368,1.933103756,1.330696171
-46369,0.921654592,1.380512093
-46369,0.910209585,1.433013728
-46373,-3.101231275,1.488117938
-46366,3.887332,1.545737339
-46370,-0.124100598,1.605780453
-46365,4.864470919,1.668151871
-46369,0.853046541,1.732752427
-46368,1.841626257,1.799479391
-46370,-0.169789946,1.868226666
-46370,-0.181202076,1.938885003
-46370,-0.192610148,2.011342226
-46370,-0.20401417,2.085483465
-46370,-0.215414156,2.161191402
-46367,2.773189883,2.238346526
-46364,5.761797937,2.316827389
-46366,3.750409993,2.396510882
-46367,2.739026038,2.477272506
-46365,4.727646061,2.558986654
-46368,1.716270048,2.641526897
-46366,3.704897985,2.724766272
-46365,4.69352986,2.808577577
-46363,6.682165658,2.892833658
-46369,0.670805364,2.977407711
-46370,-0.340551037,3.062173568
-46365,4.64809644,3.147005993
-46366,3.63674778,3.231780974
-46369,0.625402967,3.316376003
-46369,0.614061985,3.400670361
-46365,4.602724818,3.484545398
-46370,-0.408608552,3.567884795
-46366,3.58006186,3.650574832
-46368,1.568736037,3.732504641
-46366,3.557413962,3.81356645
-46362,7.546095616,3.893655819
-46363,6.534780983,3.972671862
-46366,3.523470043,4.050517463
-46367,2.512162779,4.127099472
-46366,3.50085917,4.202328893
-46362,7.489559196,4.27612106
-46364,5.478262838,4.348395792
-46361,8.466970075,4.419077538
-46368,1.455680884,4.488095508
-46365,4.444395244,4.555383784
-46359,10.43311313,4.620881417
-46366,3.421834527,4.684532508
-46364,5.410559403,4.746286273
-46360,9.399287735,4.806097088
-46366,3.3880195,4.863924522
-46361,8.376754672,4.919733349
-46367,2.365493224,4.973493547
-46367,2.354235129,5.025180272
-46366,3.342980361,5.074773832
-46364,5.331728891,5.122259622
-46363,6.320480693,5.167628066
-46361,8.309235736,5.210874525
-46359,10.29799399,5.2519992
-46362,7.286755433,5.291007019
-46363,6.275520025,5.327907504
-46365,4.264287739,5.362714631
-46369,0.253058541,5.395446677
-46367,2.241832399,5.426126045
-46364,5.230609281,5.454779091
-46368,1.219389153,5.481435929
-46369,0.208171982,5.506130233
-46361,8.196957734,5.528899026
-46363,6.185746375,5.549782459
-46360,9.174537871,5.56882359
-46367,2.163332186,5.586068147
-46363,6.152129285,5.601564289
-46363,6.140929131,5.615362368
-46365,4.129731686,5.627514675
-46367,2.118536915,5.638075195
-46360,9.107344778,5.647099352
-46361,8.096155238,5.654643758
-46370,-0.915031746,5.66076596
-46360,9.073783788,5.665524186
-46365,4.062601799,5.668977095
-46361,8.051422247,5.671183532
-46363,6.04024509,5.672202283
-46370,-0.970929714,5.672091835
-46363,6.017897793,5.670910143
-46363,6.006727568,5.668714402
-46367,1.995559568,5.665560828
-46361,7.984393749,5.661504443
-46362,6.973230068,5.656598873
-46360,8.962068478,5.650896151
-46363,5.950908934,5.644446534
-46359,9.939751391,5.637298328
-46363,5.928595801,5.62949772
-46366,2.917442117,5.621088634
-46362,6.906290288,5.612112583
-46360,8.895140268,5.602608544
-46362,6.883992005,5.592612845
-46362,6.87284545,5.582159058
-46368,0.861700551,5.571277912
-46364,4.850557257,5.559997218
-46367,1.839415515,5.548341807
-46363,5.828275273,5.536333476
-46362,6.817136478,5.52399096
-46367,1.805999077,5.511329904
-46361,7.794863017,5.498362857
-46366,2.783728241,5.485099277
-46363,5.772594697,5.471545545
-46367,1.761462327,5.457705
-46361,7.750331078,5.443577977
-46364,4.739200892,5.429161864
-46364,4.728071712,5.414451168
-46363,5.716943482,5.399437589
-46367,1.705816143,5.38411011
-46367,1.694689638,5.368455096
-46364,4.683563907,5.352456398
-46365,3.672438892,5.33609547
-46361,7.661314534,5.319351493
-46360,8.650190772,5.302201509
-46366,2.639067546,5.284620554
-46363,5.627944796,5.266581808
-46363,5.61682246,5.248056744
-46366,2.605700474,5.229015277
-46371,-2.405421222,5.209425932
-46365,3.583457308,5.189255996
-46362,6.572336,5.168471689
-46364,4.561214793,5.147038324
-46365,3.550093622,5.124920478
-46365,3.538972422,5.102082153
-46356,12.52785113,5.078486947
-46356,12.51672968,5.054098213
-46366,2.505608004,5.028879223
-46367,1.494486038,5.002793327
-46360,8.483363712,4.975804109
-46363,5.472240958,4.947875535
-46364,4.461117708,4.918972101
-46364,4.449993893,4.889058976
-46366,2.438869442,4.858102132
-46359,9.427744286,4.826068476
-46370,-1.583381647,4.792925969
-46360,8.405491573,4.758643741
-46366,2.394363874,4.723192196
-46363,5.383235184,4.686543109
-46364,4.372105429,4.648669719
-46361,7.360974539,4.609546803
-46362,6.349842438,4.569150752
-46363,5.338709053,4.527459633
-46367,1.327574308,4.484453238
-46361,7.316438129,4.440113133
-46362,6.30530044,4.394422685
-46365,3.294161165,4.347367095
-46359,9.283020226,4.298933407
-46363,5.271877546,4.249110515
-46360,8.260733048,4.197889163
-46362,6.249586653,4.145261931
-46361,7.23843828,4.091223216
-46360,8.22728785,4.035769202
-46367,1.216135282,3.978897825
-46364,4.204980494,3.920608728
-46365,3.193823404,3.860903209
-46362,6.18266393,3.799784168
-46364,4.17150199,3.737256035
-46364,4.1603375,3.673324707
-46366,2.149170376,3.607997471
-46370,-1.861999466,3.54128292
-46362,6.12682789,3.473190877
-46369,-0.88434764,3.403732301
-46368,0.104473859,3.3329192
-46367,1.093292302,3.260764537
-46365,3.082107605,3.187282138
-46363,5.070919681,3.112486593
-46365,3.059728447,3.036393162
-46368,0.048533816,2.95901768
-46372,-3.962664298,2.880376461
-46369,-0.973865981,2.800486204
-46361,7.014928681,2.7193639
-46363,5.003719603,2.637026745
-46368,-0.007493302,2.553492051
-46364,3.981289879,2.468777164
-46366,1.970069059,2.382899385
-46358,9.958844151,2.295875895
-46363,4.947615067,2.207723684
-46366,1.936381718,2.118459488
-46369,-1.074855984,2.028099729
-46368,-0.086098129,1.936660463
-46365,2.902655194,1.844157332
-46368,-0.108596104,1.750605524
-46370,-2.119852113,1.65601974
-46363,4.868887079,1.560414168
-46370,-2.14237862,1.46380246
-46369,-1.153649298,1.366197724
-46366,1.835074955,1.267612517
-46366,1.823794049,1.168058846
-46366,1.812507895,1.067548179
-46368,-0.198783598,0.966091458
-46371,-3.21008052,0.863699126
-46370,-2.221382961,0.760381154
-46368,-0.232691011,0.656147081
-46372,-4.244004759,0.551006051
-46366,1.744675705,0.444966868
-46364,3.73335029,0.338038046
-46369,-1.277981092,0.230227874
-46367,0.710681469,0.121544473
-46369,-1.300662117,0.011995875
-46368,-0.31201194,-0.09840991
-46370,-2.323368089,-0.209664816
-46369,-1.334730656,-0.321760638
-46368,-0.346099728,-0.434688953
-46367,0.642524603,-0.54844103
-46366,1.63114225,-0.66300775
-46372,-4.380246879,-0.778379513
-46363,4.608357128,-0.894546155
-46367,0.596954181,-1.011496856
-46371,-3.41445581,-1.129220059
-46371,-3.425872935,-1.247703381
-46364,3.562702717,-1.366933532
-46368,-0.448728944,-1.486896232
-46369,-1.460168007,-1.60757614
-46367,0.528385438,-1.728956775
-46369,-1.483068699,-1.851020448
-46367,0.505469493,-1.973748199
-46366,1.493999924,-2.097119741
-46378,-10.5174775,-2.2211134
-46370,-2.528962854,-2.345706075
-46372,-4.540456242,-2.470873194
-46370,-2.551957747,-2.596588681
-46367,0.436532543,-2.722824934
-46371,-3.57498546,-2.849552803
-46367,0.413488155,-2.976741579
-46367,0.401953302,-3.104358998
-46365,2.390409892,-3.23237124
-46371,-3.621142163,-3.360742951
-46370,-2.632702949,-3.489437258
-46369,-1.644272556,-3.618415809
-46370,-2.65585107,-3.747638809
-46371,-3.667438579,-3.877065068
-46372,-4.67903517,-4.006652063
-46374,-6.690640929,-4.136355999
-46373,-5.702255943,-4.266131884
-46371,-3.713880297,-4.395933611
-46378,-10.72551408,-4.525714047
-46370,-2.737157368,-4.65542513
-46368,-0.748810252,-4.785017971
-46371,-3.760472815,-4.914442963
-46372,-4.772145139,-5.0436499
-46375,-7.783827307,-5.172588095
-46370,-2.795519403,-5.301206512
-46372,-4.807221508,-5.42945389
-46369,-1.818933704,-5.557278887
-46378,-10.83065607,-5.684630214
-46375,-7.842388694,-5.811456781
-46369,-1.85413165,-5.937707838
-46371,-3.865885018,-6.06333313
-46372,-4.877648879,-6.188283037
-46372,-4.889423311,-6.312508729
-46376,-8.901208392,-6.435962316
-46369,-1.913004201,-6.558596994
-46377,-9.924810815,-6.680367195
-46377,-9.93662831,-6.801228737
-46375,-7.948456762,-6.921138965
-46378,-10.96029625,-7.040056892
-46374,-6.972146839,-7.157943343
-46371,-3.984008611,-7.274761085
-46374,-6.995881636,-7.39047496
-46375,-8.007765987,-7.505052008
-46371,-4.019661734,-7.618461589
-46371,-4.031568949,-7.730675495
-46374,-7.043487703,-7.84166806
-46379,-12.05541806,-7.951416258
-46379,-12.0673601,-8.059899795
-46376,-9.079313889,-8.167101197
-46375,-8.091279488,-8.273005886
-46376,-9.103256966,-8.377602246
-46377,-10.11524639,-8.480881686
-46377,-10.12724782,-8.582838687
-46374,-7.139261329,-8.683470845
-46377,-10.15128697,-8.7827789
-46374,-7.163324812,-8.880766761
-46374,-7.175374913,-8.977441511
-46377,-10.18743733,-9.072813412
-46378,-11.19951213,-9.166895897
-46379,-12.21159937,-9.259705546
-46372,-5.223699107,-9.351262057
-46375,-8.235811395,-9.441588208
-46377,-10.24793629,-9.530709802
-46371,-4.260073853,-9.618655612
-46379,-12.27222413,-9.705457301
-46375,-8.284387185,-9.791149349
-46379,-12.29656306,-9.875768958
-46377,-10.30875182,-9.959355951
-46381,-14.3209535,-10.04195266
-46379,-12.33316816,-10.12360383
-46378,-11.34539585,-10.20435643
-46377,-10.35763661,-10.2842596
-46377,-10.36989049,-10.36336446
-46382,-15.38215754,-10.44172393
-46378,-11.39443779,-10.51939264
-46380,-13.4067313,-10.59642672
-46375,-8.419038101,-10.67288365
-46374,-7.431358236,-10.74882204
-46380,-13.44369175,-10.8243015
-46372,-5.456038669,-10.89938243
-46377,-10.46839904,-10.97412583
-46374,-7.480772904,-11.0485931
-46377,-10.49316029,-11.12284583
-46379,-12.50556123,-11.19694564
-46379,-12.51797577,-11.27095392
-46375,-8.530403936,-11.34493168
-46376,-9.54284576,-11.4189393
-46377,-10.55530127,-11.49303633
-46376,-9.567770508,-11.56728133
-46374,-7.580253493,-11.64173159
-46380,-13.59275026,-11.71644299
-46377,-10.60526082,-11.79146975
-46379,-12.61778523,-11.86686427
-46370,-3.630323484,-11.94267688
-46376,-9.642875625,-12.01895572
-46374,-7.655441672,-12.09574647
-46376,-9.668021648,-12.17309225
-46382,-15.68061557,-12.25103334
-46370,-3.693223474,-12.3296071
-46379,-12.70584537,-12.40884775
-46375,-8.718481268,-12.48878621
-46377,-10.7311312,-12.56944999
-46376,-9.743795182,-12.65086298
-46382,-15.75647323,-12.73304535
-46384,-17.76916535,-12.81601343
-46375,-8.781871565,-12.89977956
-46378,-11.79459189,-12.98435199
-46383,-16.80732632,-13.06973477
-46383,-16.82007489,-13.1559277
-46383,-16.83283759,-13.24292617
-46381,-14.84561444,-13.33072116
-46379,-12.85840543,-13.41929912
-46378,-11.87121057,-13.50864197
-46380,-13.88402987,-13.59872701
-46382,-15.89686333,-13.68952692
-46378,-11.90971094,-13.7810097
-46381,-14.92257271,-13.87313871
-46386,-19.93544864,-13.96587264
-46376,-9.948338714,-14.0591655
-46385,-18.96124293,-14.15296667
-46381,-14.97416129,-14.24722092
-46382,-15.98709378,-14.34186843
-46380,-14.00004038,-14.43684486
-46380,-14.0130011,-14.5320814
-46378,-12.02597591,-14.6275048
-46384,-18.0389648,-14.72303752
-46385,-19.05196776,-14.81859774
-46384,-18.06498477,-14.91409947
-46378,-12.07801581,-15.00945268
-46381,-15.09106085,-15.10456336
-46381,-15.10411989,-15.19933366
-46381,-15.11719289,-15.29366201
-46380,-14.13027984,-15.38744322
-46382,-16.1433807,-15.48056865
-46379,-13.15649544,-15.57292632
-46383,-17.16962405,-15.66440105
-46382,-16.18276648,-15.75487464
-46378,-12.19592271,-15.84422599
-46381,-15.20909271,-15.93233128
-46382,-16.22227643,-16.01906411
-46383,-17.23547385,-16.10429569
-46376,-10.24868492,-16.187895
-46379,-13.26190961,-16.26972893
-46380,-14.27514787,-16.34966253
-46382,-16.28839967,-16.42755911
-46378,-12.30166496,-16.50328046
-46381,-15.3149437,-16.57668704
-46375,-9.328235844,-16.64763812
-46383,-17.34154134,-16.71599203
-46386,-20.35486015,-16.78160629
-46378,-12.36819221,-16.84433782
-46383,-17.38153748,-16.90404313
-46384,-18.3948959,-16.96057853
-46379,-13.40826742,-17.01380026
-46378,-12.42165198,-17.06356474
-46382,-16.43504953,-17.10972874
-46385,-19.44846001,-17.15214957
-46383,-17.46188336,-17.19068524
-46386,-20.47531951,-17.22519471
-46384,-18.4887684,-17.25553803
-46385,-19.50222997,-17.28157652
-46382,-16.51570414,-17.30317302
-46379,-13.52919085,-17.32019199
-46378,-12.54269004,-17.33249977
-46384,-18.55620161,-17.33996472
-46383,-17.56972552,-17.34245741
-46381,-15.58326166,-17.33985081
-46384,-18.59680998,-17.33202045
-46385,-19.61037039,-17.31884463
-46382,-16.62394282,-17.30020458
-46382,-16.63752717,-17.27598461
-46384,-18.65112337,-17.24607233
-46385,-19.66473133,-17.21035881
-46379,-13.67835096,-17.16873871
-46383,-17.69198218,-17.12111051
-46382,-16.7056249,-17.06737664
-46388,-22.71927902,-17.00744365
-46383,-17.73294444,-16.94122237
-46381,-15.74662109,-16.8686281
-46383,-17.76030884,-16.78958074
-46386,-20.77400762,-16.70400495
-46380,-14.78771731,-16.61183032
-46381,-15.80143782,-16.51299151
-46378,-12.81516904,-16.40742839
-46381,-15.82891086,-16.29508623
-46386,-20.84266318,-16.17591579
-46384,-18.85642589,-16.04987348
-46383,-17.87019889,-15.91692152
-46377,-11.88398204,-15.77702803
-46380,-14.89777526,-15.63016722
-46379,-13.91157841,-15.47631944
-46376,-10.92539138,-15.31547135
-46382,-16.93921406,-15.14761604
-46382,-16.95304632,-14.97275311
-46380,-14.96688806,-14.79088881
-46372,-6.980739129,-14.60203609
-46377,-11.99459942,-14.40621475
-46380,-15.00846882,-14.20345152
-46382,-17.02234718,-13.99378009
-46373,-8.036234384,-13.77724126
-46379,-14.05013031,-13.55388293
-46381,-16.06403482,-13.32376025
-46373,-8.077947784,-13.08693557
-46369,-4.091869075,-12.84347858
-46381,-16.10579856,-12.59346629
-46374,-9.119736102,-12.33698306
-46376,-11.13368157,-12.07412064
-46375,-10.14763483,-11.80497815
-46379,-14.16159573,-11.52966213
-46376,-11.17556416,-11.24828645
-46376,-11.18953996,-10.96097236
-46373,-8.203522994,-10.6678484
-46379,-14.21751312,-10.36905039
-46370,-5.231510209,-10.06472136
-46369,-4.245514104,-9.755011493
-46375,-10.25952467,-9.440078011
-46371,-6.273541751,-9.120085117
-46371,-6.287565214,-8.795203868
-46380,-15.30159491,-8.465612062
-46377,-12.31563069,-8.131494104
-46373,-8.329672409,-7.793040856
-46376,-11.34371992,-7.450449483
-46372,-7.357773068,-7.103923273
-46370,-5.371831706,-6.753671454
-46370,-5.385895683,-6.39990899
-46371,-6.399964847,-6.04285637
-46375,-10.41403904,-5.682739372
-46367,-2.428118123,-5.319788829
-46367,-2.442201929,-4.954240366
-46373,-8.456290309,-4.586334136
-46366,-1.470383107,-4.216314532
-46371,-6.484480168,-3.844429897
-46366,-1.498581338,-3.470932211
-46366,-1.512686461,-3.096076774
-46366,-1.52679538,-2.72012187
-46369,-4.54090794,-2.343328426
-46366,-1.555023984,-1.965959656
-46364,0.430856644,-1.588280694
-46369,-4.583265899,-1.210558221
-46368,-3.597391455,-0.833060078
-46362,2.388480132,-0.456054874
-46366,-1.625650981,-0.079811585
-46362,2.360215363,0.295400856
-46361,3.346079323,0.669313972
-46363,1.331941054,1.041660164
-46362,2.317800715,1.412173133
-46365,-0.69634154,1.780588312
-46362,2.289514448,2.146643296
-46361,3.275368834,2.510078273
-46360,4.261221773,2.870636461
-46361,3.247073423,3.228064541
-46361,3.232923938,3.582113086
-46356,8.218773473,3.932536998
-46362,2.204622183,4.279095925
-46359,5.190470222,4.621554692
-46361,3.176317743,4.95968371
-46359,5.1621649,5.293259392
-46361,3.148011844,5.622064549
-46360,4.13385873,5.945888783
-46363,1.119705707,6.264528873
-46361,3.105552929,6.577789142
-46359,5.091400545,6.88548182
-46358,6.077248708,7.187427383
-46360,4.063097567,7.48345489
-46358,6.048947272,7.773402294
-46358,6.034797974,8.057116743
-46355,9.020649819,8.334454862
-46355,9.006502958,8.605283012
-46354,9.992357536,8.869477536
-46354,9.978213701,9.126924985
-46355,8.964071597,9.377522315
-46356,7.94993137,9.62117707
-46356,7.935793162,9.857807541
-46357,6.921657117,10.0873429
-46353,10.90752338,10.30972331
-46351,12.89339208,10.5249
-46357,6.87926337,10.73283537
-46349,14.86513738,10.93350295
-46356,7.851014262,11.1268875
-46347,16.83689414,11.31298492
-46353,10.82277715,11.49180226
-46353,10.80866343,11.66335759
-46349,14.79455311,11.82768
-46349,14.78044633,11.98480938
-46352,11.76634321,12.13479633
-46353,10.75224389,12.27770197
-46353,10.73814849,12.41359773
-46347,16.72405714,12.54256514
-46354,9.709969959,12.66469556
-46350,13.69588708,12.78008992
-46348,15.68180863,12.88885841
-46346,17.66773471,12.99112013
-46354,9.653665467,13.08700279
-46348,15.639601,13.1766423
-46348,15.62554144,13.26018238
-46350,13.61148689,13.33777415
-46354,9.597437475,13.40957573
-46350,13.5833933,13.4757517
-46346,17.56935449,13.53647273
-46352,11.55532114,13.59191502
-46349,14.54129337,13.64225985
-46351,12.52727128,13.68769302
-46351,12.51325498,13.72840436
-46351,12.49924458,13.76458715
-46349,14.48524018,13.79643762
-46351,12.47124188,13.82415436
-46352,11.45724979,13.84793779
-46351,12.443264,13.86798954
-46351,12.42928461,13.88451194
-46352,11.41531172,13.89770742
-46349,14.40134543,13.90777795
-46353,10.38738584,13.91492447
-46347,16.37343303,13.9193463
-46357,6.359487098,13.92124065
-46349,14.34554814,13.92080199
-46348,15.33161624,13.91822157
-46353,10.31769149,13.91368687
-46353,10.30377399,13.90738105
-46352,11.2898638,13.89948251
-46350,13.27596103,13.89016435
-46347,16.26206575,13.87959393
-46346,17.24817805,13.86793239
-46352,11.23429801,13.85533426
-46350,13.22042571,13.84194701
-46349,14.20656123,13.82791069
-46352,11.19270464,13.81335757
-46348,15.17885602,13.7984118
-46348,15.16501545,13.78318908
-46350,13.15118301,13.76779643
-46348,15.13735875,13.7523319
-46346,17.12354276,13.73688436
-46351,12.10973509,13.72153332
-46345,18.09593583,13.70634878
-46347,16.08214503,13.69139108
-46349,14.06836276,13.67671084
-46344,19.05458909,13.66234886
